    0      44.8     -64.6
    1     -97.9      24.1
    2       -28     121.7
    3     -62.8      59.5
    4      22.1     -35.4
    5        20       8.8
    6      45.2     111.2
    7     -66.3       107
    8     -28.9     -34.3
    9     104.1     113.2
   10     -22.3      19.3
   11       7.5      88.8
   12    -105.8    -110.1
   13     -64.6    -106.4
   14      11.6     -52.4
   15      52.4     -30.7
   16       -17      -115
   17      78.9       1.4
   18     -60.1     -87.3
   19    -116.9     -18.5
   20      19.7    -108.5
   21     -79.7      18.6
   22     -12.4    -115.6
   23      93.8       2.5
   24      30.8    -119.6
   25      -117     106.2
   26      16.1     -21.9
   27      19.1      57.8
   28      -5.6      -0.8
   29        14     120.1
   30     -21.9      66.4
   31     118.5       1.9
   32      65.5    -106.3
   33      65.1     100.6
   34     -85.8      31.9
   35      -2.1      83.5
   36     101.2    -108.9
   37      92.6     -62.8
   38       -19     -71.8
   39    -121.1     -44.4
   40     -53.2    -104.6
   41     110.9     -80.9
   42      21.1      49.3
   43     -98.2        33
   44        -2    -100.8
   45      21.3     -26.4
   46    -104.4     -67.9
   47     -52.6      75.6
   48        84     -84.1
   49        59      32.5
   50      91.4     -49.5
   51     -22.6     119.2
   52      90.5      64.6
   53      50.7      64.5
   54     -81.1      -109
   55     -82.9      95.6
   56    -119.7      75.5
   57     -77.8      14.1
   58    -112.1     119.6
   59      56.5      92.3
   60     -23.2     -76.4
   61      -6.6    -105.1
   62     -33.5     -25.4
   63      18.3      33.8
   64      81.6    -116.9
   65      83.2      34.1
   66        66     -29.3
   67     -47.9       2.3
   68      63.4       2.2
   69     108.8       6.3
   70      68.6       8.2
   71      50.9     -20.3
   72       0.5     -25.4
   73     -16.1     -85.2
   74    -114.1     -69.3
   75        99     -14.5
   76      10.2      -105
   77      35.1       119
   78      34.9        -9
   79      25.1    -120.1
   80     109.1     -52.3
   81     -14.9    -107.6
   82      49.7       5.8
   83      -1.2      50.8
   84       103       3.3
   85       -82    -105.3
   86      94.8    -117.4
   87      69.5      57.4
   88      -4.2       100
   89      55.6     -84.4
   90     -74.5      55.6
   91      79.6     110.6
   92     -58.6     101.5
   93      75.5     -56.9
   94      74.3     121.5
   95      96.2      21.4
   96       -19      -4.4
   97     -75.5     -79.5
   98    -103.9      68.1
   99    -102.7      10.7
  100      56.1     100.2
  101     -70.1      -100
  102        36     -52.3
  103     -47.3     -37.6
  104      50.5     -40.2
  105     -34.3     104.6
  106      47.3     -53.9
  107      -4.7      49.6
  108     108.8      76.1
  109     112.7     -77.6
  110       -56     117.3
  111      62.8        50
  112       7.4    -110.6
  113    -113.9     -18.3
  114      76.4      25.4
  115     105.8      32.3
  116      21.2      58.7
  117     -67.3     -13.5
  118      60.2       4.5
  119     114.9     -23.8
  120     112.6      15.4
  121      98.9     120.2
  122       -67    -114.4
  123      33.7      32.9
  124    -117.1      60.9
  125     -30.9     -81.7
  126     120.8      72.8
  127     -53.4     -38.6
  128      17.8     -42.9
  129     -76.9     -22.5
  130     -28.8      88.3
  131      53.3     -62.3
  132     104.4     109.3
  133      27.3     -87.5
  134       -23       -47
  135     -58.8      52.8
  136    -106.5     -26.7
  137     -67.2    -117.2
  138    -117.7      12.1
  139      84.9     -37.2
  140     105.4      31.1
  141      23.9      74.4
  142      -8.7     -62.3
  143       -40     -88.6
  144      93.7      15.9
  145     -86.7      91.3
  146      67.1      78.6
  147      91.2     -46.6
  148     -68.5     -27.9
  149    -104.9     -37.3
