    0     120.9     -16.3
    1      59.3    -113.3
    2      54.4      65.4
    3     -24.4     -14.6
    4     -49.3       105
    5      -0.6      39.8
    6     -53.4     -16.1
    7     -24.4     -26.8
    8      67.1     120.2
    9     -21.4      90.3
   10      -111       -56
   11      36.7     103.5
   12      28.8     -67.7
   13     -85.2       -62
   14       0.8    -109.8
   15     -92.4     -54.8
   16      48.1       -46
   17      58.2     -18.2
   18      31.7     -70.4
   19     -23.5       108
   20      50.1      25.7
   21      87.5     -76.4
   22      22.6      59.4
   23    -105.1      25.1
   24     -17.4     -49.6
   25     -53.2       -79
   26        20        45
   27     -82.5      35.4
   28     -87.7     -63.2
   29     -20.5     -59.9
   30      66.4     -60.2
   31      75.5     -41.1
   32     -92.3     -25.1
   33     117.2      -7.7
   34     -24.8      25.4
   35     112.5      20.1
   36     -47.7      96.3
   37      75.2      36.7
   38     114.5     -72.5
   39     -60.4     -28.2
   40      -112      55.1
   41      66.4      34.2
   42      22.8      81.3
   43     120.5      80.4
   44    -121.8    -107.2
   45      81.6     -89.7
   46     -14.2     -67.1
   47     -53.4      66.3
   48     -76.4       -76
   49     -67.5     -85.5
   50     -42.8     -47.1
   51     -64.1     -94.4
   52    -101.8      -101
   53      57.1     -87.9
   54     -23.8    -100.7
   55       -31      52.7
   56     102.6      25.9
   57     -84.7      48.6
   58    -118.1     -83.7
   59    -103.3     106.1
   60    -103.2     -49.6
   61      75.6     102.3
   62      35.2      77.6
   63     -66.8      68.1
   64      22.1      83.2
   65     -59.9     -34.2
   66     118.5      82.5
   67     104.8      47.9
   68      75.4     -92.1
   69    -108.5      36.1
   70     -81.7      80.3
   71       -28     118.1
   72     -83.9     102.6
   73      55.2      48.2
   74    -105.5     -60.6
   75      90.9      79.2
   76    -115.1       -68
   77      67.7      14.7
   78      71.6    -111.6
   79      88.9     108.3
   80      76.4       -82
   81      95.4      96.7
   82     -63.4      90.6
   83     -57.3        97
   84    -113.8      25.5
   85     -67.7    -104.2
   86      76.1    -118.1
   87        67     117.7
   88      28.9     -47.1
   89      79.4      94.1
   90     -61.5        90
   91     -30.5      65.5
   92     -49.8      63.9
   93     -72.6      99.5
   94      20.3      -106
   95       109       -58
   96     -93.9      30.7
   97     117.6      -9.1
   98     -66.3     -64.1
   99    -121.2      46.4
  100    -100.7      70.2
  101      53.1     -68.3
  102     -78.9     -26.2
  103      14.1      99.9
  104     111.8    -106.9
  105        77     -19.6
  106     -39.8     101.9
  107     -95.4     -14.1
  108     -97.2       0.8
  109      20.3      53.6
  110     119.6     -71.1
  111      62.3     -88.5
  112       9.5     -36.9
  113     -22.6        41
  114     -31.4     103.1
  115     -16.1     -11.3
  116    -101.8      20.6
  117      -109      73.2
  118       -30      87.7
  119     -52.9     -31.3
  120      26.6     -88.9
  121     -99.7     -33.5
  122     -25.2      -9.1
  123     -90.4     104.6
  124     -12.6      45.2
  125     -12.8      39.1
  126     -55.9       110
  127     -96.5     -29.9
  128      99.5     -94.4
  129    -102.8    -115.1
  130     -31.4    -104.9
  131     -29.4     115.4
  132     101.1      15.5
  133      66.9     -16.8
  134      75.7      -6.5
  135    -114.7       -29
  136      69.6     -88.6
  137    -102.2      44.8
  138        66      54.8
  139    -115.9      52.7
  140     -92.5       -72
  141     -35.2     -48.8
  142     113.1     104.2
  143     -39.2     -73.7
  144      79.8     -35.6
  145     106.9     113.7
  146     -70.3     116.7
  147     -75.3     -14.7
  148     -59.4     109.7
  149       -11      33.3
