    0     -38.6     -54.1
    1      48.1     -69.6
    2     -49.6      87.5
    3      -9.7     -74.9
    4     -64.3     -75.9
    5       1.3      32.5
    6        81        17
    7     -58.5     -59.7
    8      18.3      86.1
    9     -97.6     -81.1
   10       1.1      76.3
   11        34      64.4
   12       1.4      -9.5
   13      70.1      49.1
   14      82.6      96.9
   15     -69.2      37.2
   16      78.5      16.5
   17        86     -79.8
   18     -89.5      96.8
   19      59.3     -69.7
   20     -26.3     -22.4
   21     -45.7     -13.9
   22     -76.3     -43.2
   23     -15.8      28.6
   24      94.9      59.8
   25      86.8     -97.8
   26      81.6      21.3
   27       4.8      37.9
   28     -86.6      84.4
   29     -86.3        95
   30     -44.2      23.5
   31     -21.9      16.6
   32     -32.5        97
   33       -82      56.4
   34      45.9     -63.1
   35     -34.1      32.5
   36      91.2      80.3
   37      96.2     -36.3
   38     -78.6     -49.5
   39     -91.9     -54.4
   40      68.6      -7.6
   41      43.2      23.3
   42     -11.8       -30
   43     -80.4     -85.6
   44     -87.6     -69.6
   45      62.5     -58.6
   46      79.3      43.3
   47      13.7      28.1
   48     -32.1      18.4
   49     -98.7     -82.8
   50        72     -88.6
   51      49.4      63.9
   52      42.1      20.8
   53       -89     -36.4
   54     -71.1      84.3
   55       -96     -31.2
   56     -42.7      80.6
   57      31.9     -48.9
   58     -35.7      41.5
   59      70.7      66.5
   60     -69.8     -17.1
   61       3.4     -22.6
   62     -64.2     -41.9
   63      81.7     -10.1
   64     -24.2     -57.2
   65      -0.5        62
   66     -39.4     -44.9
   67     -44.6     -62.3
   68     -63.7       -81
   69      88.8     -34.2
   70      56.7      75.9
   71      69.1      56.6
   72       -65        52
   73     -80.5     -64.5
   74     -90.2     -13.5
   75      56.9     -51.8
   76        55      27.3
   77      29.6     -26.6
   78      64.3       1.2
   79     -67.7     -98.7
   80      43.4     -36.4
   81     -17.7      31.4
   82     -60.4      34.2
   83      35.6      48.6
   84      40.2      26.3
   85     -74.2     -68.9
   86      72.1      74.2
   87       6.7        49
   88       -68     -34.2
   89     -21.1         8
   90     -19.1     -13.6
   91     -16.9      94.7
   92     -68.9     -19.5
   93      40.6        81
   94      59.8      37.2
   95      21.9      42.6
   96     -20.9     -94.6
   97      25.7     -52.6
   98      93.3     -54.2
   99     -51.9      72.3
