    0      39.1     100.9
    1      98.7      42.6
    2        36      82.6
    3      12.8     -74.3
    4      -4.3      65.9
    5      17.5     -38.9
    6       1.8     -99.1
    7    -109.3      22.1
    8       9.2     -96.6
    9     -23.5     -37.5
   10     115.9     -55.2
   11      38.7      36.7
   12      66.9     120.9
   13     -28.5    -103.7
   14      98.2      75.8
   15     -95.3    -108.7
   16      -7.9        41
   17      45.8     -12.3
   18     -85.2     -64.6
   19      -6.6      28.8
   20     -93.6      74.1
   21      59.1      68.1
   22    -110.7      74.6
   23     -58.3     109.7
   24       -10      -3.2
   25     -26.2     -65.5
   26     113.3      63.4
   27      40.8      58.1
   28      29.3      65.5
   29     -71.1     105.4
   30    -113.6     -73.8
   31     105.1      39.7
   32     -29.2      87.5
   33      99.4      44.8
   34     115.6      19.7
   35      78.7     104.1
   36      17.1     107.9
   37        99     -44.3
   38    -111.6      89.3
   39     -58.2     -19.7
   40      21.6      29.6
   41     121.1      40.6
   42     -90.6     -59.9
   43    -109.5      -0.1
   44    -109.9     117.3
   45     -86.2     -84.1
   46     110.2      18.2
   47      59.4     -22.6
   48      12.3     -53.6
   49     -17.7    -113.8
   50     -25.2     -52.8
   51      30.7     -49.3
   52      16.1     -56.3
   53    -107.4     -69.2
   54     115.2     -98.3
   55      82.1      98.2
   56      -7.5     -90.1
   57        23      63.3
   58     -27.2     -62.5
   59      24.6      76.5
   60      42.7      -111
   61     -70.5     111.4
   62     -56.1     -38.4
   63      23.5     -25.9
   64       100     -28.2
   65     -86.9    -106.9
   66     117.6      99.6
   67     -14.9     -45.6
   68        26       6.2
   69     -65.3      33.6
   70      22.4      -5.2
   71       -49      50.7
   72     -18.6     -50.2
   73        24       6.7
   74     109.2     -31.4
   75      33.5     113.5
   76      95.1    -114.6
   77     -13.4     -11.4
   78      94.6    -107.7
   79    -105.4     -89.2
   80     -79.7     -53.9
   81       118       -64
   82      17.7     -79.2
   83     -36.8     112.7
   84     116.4     -95.7
   85      -3.9      37.3
   86     107.3     -86.6
   87      -1.2      12.4
   88        14    -110.3
   89     -11.9      95.7
   90     -51.7     -15.8
   91    -118.8      35.8
   92      90.1      39.2
   93     103.6      41.1
   94     118.1     -15.7
   95     -56.3      11.5
   96        82      55.5
   97      98.9     106.3
   98     -50.7     112.9
   99     115.9      33.7
  100      59.1    -105.1
  101        99     -63.9
  102       -40     -27.4
  103      73.2      12.7
  104      62.4     118.2
  105      30.9      44.4
  106     -79.1     -26.4
  107     -94.4     111.1
  108      17.1     -44.5
  109      62.5       7.9
  110    -117.6     -38.2
  111      83.6     111.5
  112     -79.4     -85.2
  113      97.1     -15.1
  114      11.5     -47.9
  115      -8.4     -87.1
  116        61     -93.1
  117      29.1     -54.3
  118     -28.9      37.6
  119     -92.3     -63.4
  120      45.5     -36.4
  121      31.5        32
  122      38.3     -36.2
  123      85.9     -25.4
  124      55.9    -112.7
  125      -103      93.1
  126      56.7      74.9
  127     112.3     -99.1
  128     -61.8      30.4
  129     117.7     105.5
  130    -116.3     -27.5
  131       0.5        45
  132      31.2      29.7
  133        68      14.5
  134     111.7      11.7
  135      97.4      11.7
  136      72.7    -109.2
  137     121.1     -28.9
  138    -107.8      20.4
  139      43.1      92.4
  140      89.2         4
  141    -107.7     -10.3
  142     -85.5    -119.9
  143     -42.3     -98.8
  144      95.7      93.1
  145     -70.5         3
  146      46.3      14.8
  147     -49.7      91.5
  148      69.6      24.4
  149      16.8      68.3
