    0     -35.3     -77.3
    1      22.9      93.9
    2     -15.1      42.2
    3        51      68.7
    4      25.6      -2.9
    5      38.2       -99
    6      95.5      40.9
    7      86.4         0
    8     -76.8      18.5
    9      67.4      28.6
   10     -15.7      10.5
   11     -83.1     -52.9
   12      -5.3     -21.2
   13     -77.6      75.2
   14     -49.5     -29.9
   15     -63.8     -23.3
   16      97.4     -64.9
   17     -54.7      75.6
   18     -91.2     -83.2
   19     -71.1       7.7
   20      56.1      66.9
   21        36      14.6
   22      49.9      45.2
   23      11.7     -12.5
   24       -64      57.8
   25     -92.9      64.8
   26     -74.8      92.1
   27       0.1      -7.6
   28       -60       2.6
   29     -37.7     -49.8
   30     -42.5       5.9
   31      -0.5      53.6
   32     -68.2      39.4
   33       0.5      34.3
   34     -24.4     -58.8
   35        22     -92.2
   36     -16.8     -93.3
   37     -55.4     -66.6
   38       -25     -21.6
   39      27.4      73.1
   40     -53.2      25.3
   41      -4.5      55.2
   42     -97.5     -32.1
   43     -10.2      49.8
   44      53.9     -94.7
   45        11      61.5
   46        67     -99.8
   47       -11      46.1
   48       -63      78.4
   49     -90.6      57.1
   50     -26.1      -0.2
   51       -73      28.9
   52      77.4     -45.3
   53      99.1     -97.6
   54     -14.1     -54.9
   55      69.2      99.5
   56      77.8       4.5
   57     -68.2      52.5
   58       7.9      13.1
   59      10.8      -5.2
   60     -39.8        66
   61     -18.4     -80.3
   62      -2.9     -51.6
   63      68.6     -87.6
   64      88.4     -23.4
   65     -50.7     -37.6
   66      98.3     -41.8
   67      96.9        62
   68     -84.4     -69.5
   69      -9.2      97.8
   70       3.9      31.5
   71     -70.9     -59.3
   72     -42.7     -39.6
   73      71.2      40.8
   74     -60.8       -16
   75      44.3     -65.9
   76     -11.4     -55.3
   77     -56.3     -33.3
   78      72.5      27.2
   79      58.5      42.1
   80      67.2     -60.7
   81     -46.3      99.9
   82     -49.9      63.4
   83      40.8     -70.6
   84     -19.2        35
   85      67.2      27.1
   86     -43.3     -95.3
   87      55.5     -98.4
   88       -80     -60.8
   89     -74.7     -64.7
   90       0.7      18.1
   91     -72.4       5.6
   92     -24.5        83
   93     -77.2     -24.6
   94      23.6      -5.5
   95        35      55.9
   96      61.4      53.5
   97     -87.9     -49.5
   98     -63.7     -56.4
   99     -75.6     -15.2
