    0      27.7      25.7
    1      54.4     -72.1
    2      47.3     -85.3
    3      -0.1      88.7
    4      67.7      57.2
    5      22.6      86.2
    6      30.8      45.3
    7      -6.9      67.2
    8     -81.5     -34.5
    9      57.1      80.4
   10      28.1      96.1
   11     -33.3       6.6
   12       5.1     -64.1
   13      21.4        61
   14       -37     -32.2
   15       0.6     -78.9
   16     -76.7      66.1
   17     -32.5      38.7
   18     -95.5     -48.1
   19     -72.5      -8.6
   20      93.9         4
   21      20.7      28.8
   22      32.2      31.2
   23      30.6      72.2
   24      41.4     -88.5
   25      90.1     -79.2
   26      28.8     -93.9
   27       -34     -76.1
   28      97.7     -47.4
   29       3.4      72.8
   30      95.6       -55
   31     -89.4     -30.2
   32     -68.5     -93.6
   33      67.2        31
   34      -5.6      60.1
   35     -65.4     -22.2
   36       -98       -94
   37      52.4     -25.4
   38     -86.2     -91.7
   39      -0.5        68
   40      37.4     -98.9
   41       3.9      84.9
   42     -39.4        17
   43     -19.9      44.2
   44      39.6      46.8
   45      76.3        40
   46      76.1      34.7
   47       -87      51.2
   48     -87.6      16.6
   49      -6.5      34.4
   50     -22.2       -93
   51      68.4     -43.3
   52      15.8      40.8
   53     -65.9     -76.5
   54     -74.7     -22.9
   55      48.3      58.6
   56     -55.3      69.8
   57      41.8      92.9
   58     -87.7      12.1
   59     -90.7     -83.3
   60        33        62
   61     -39.9      53.4
   62      82.7     -46.9
   63     -90.5     -90.2
   64      82.3      -2.1
   65      -7.3       -40
   66     -28.3      -8.6
   67        82       -82
   68     -84.2      17.6
   69      88.9      56.8
   70     -27.1     -30.6
   71      32.1     -70.7
   72     -42.3      84.4
   73      53.1      46.6
   74      29.3     -94.1
   75     -40.1       -28
   76      36.3       -27
   77     -19.4     -15.2
   78     -50.6      47.4
   79     -91.7     -28.4
   80      13.5     -17.1
   81     -82.5      99.9
   82     -50.5      43.5
   83      35.3     -67.3
   84      38.6     -23.4
   85     -54.2     -62.8
   86        19      47.9
   87     -88.1      46.4
   88      26.9       -57
   89      93.6      28.7
   90     -87.2     -55.9
   91      44.8     -78.2
   92     -35.8      85.5
   93      70.3      87.5
   94     -33.1      96.2
   95      23.6     -56.5
   96      34.9      35.1
   97      26.7     -72.3
   98     -59.4      24.6
   99        94     -46.7
