    0     -41.8       3.5
    1        91      45.7
    2     -82.1      49.5
    3         1       -30
    4      78.8     -96.5
    5      -8.4    -104.4
    6      63.1     110.3
    7      71.9     111.3
    8      -113      50.6
    9      31.8       9.5
   10        83     -79.4
   11     120.9     107.1
   12      62.4     -56.6
   13      30.9    -118.2
   14       0.1     -10.8
   15      63.5      33.1
   16     -62.5     -19.6
   17     -53.6      87.2
   18     -77.9     112.2
   19     -89.9     -45.7
   20       3.7        42
   21       -22        16
   22       0.9     -16.2
   23      -115      56.5
   24      55.2     -66.3
   25     -30.2     -88.2
   26     -66.2     -40.1
   27      88.2     -46.8
   28      48.5     -17.6
   29      63.5    -111.5
   30     -40.1        22
   31     -56.6      96.8
   32      14.7        76
   33     -82.6      75.9
   34     -65.6     113.4
   35     116.8     -73.1
   36         4      76.6
   37     -91.5     -57.6
   38    -102.3    -103.3
   39      74.3        75
   40      59.7      -103
   41       -75     -34.5
   42       -57    -117.3
   43      60.7      85.6
   44     -21.1     -24.6
   45    -103.1      39.6
   46       114      28.6
   47     -61.7     -50.8
   48        80     -51.5
   49     113.8     -12.8
   50      89.7     -47.4
   51       7.6      81.4
   52      48.1     -80.8
   53     108.4     -20.2
   54     119.5      32.5
   55       -94     -11.4
   56       7.8     -76.9
   57      10.9    -109.7
   58      36.2     -26.6
   59     -22.4      15.2
   60     -82.8      36.5
   61     -17.7      18.7
   62       8.7     -32.3
   63     -10.4      71.8
   64     -29.8     -95.5
   65     -78.7      17.5
   66       104      55.3
   67      74.6     -21.4
   68        51      -114
   69     -65.4     -77.5
   70    -119.5    -119.2
   71      -3.8     -37.9
   72     -46.3     -89.6
   73       105     115.3
   74     -36.6      66.9
   75     -92.2      84.5
   76     117.9     -48.4
   77      46.3     -25.4
   78      -9.3        80
   79     -76.1        69
   80     -43.2     -77.5
   81       -47      96.4
   82       5.7     -90.6
   83     -36.4        10
   84     118.4     -35.1
   85     -28.2      29.8
   86       -72     -54.4
   87     114.5      15.6
   88    -101.8     -82.5
   89      92.2      70.4
   90      31.5      35.8
   91        50       2.7
   92      49.8     -88.8
   93      67.4      33.2
   94     -12.6     -87.6
   95     -58.3    -111.5
   96      13.8    -102.7
   97      97.6    -113.6
   98    -108.3      16.7
   99     -62.2     -65.2
  100      58.4      60.4
  101        80      50.1
  102     101.7      36.5
  103     -83.9      24.4
  104      32.8     -80.6
  105     109.1      -105
  106    -116.4      35.2
  107       0.3      66.2
  108     104.4      21.4
  109      31.5      53.4
  110      -5.3      25.8
  111    -114.8      64.9
  112      62.1    -116.3
  113       7.6       3.3
  114     -72.3     -58.8
  115     -97.7      98.9
  116       114      -7.3
  117    -116.8       -47
  118      65.7       1.8
  119     -81.9     -37.2
  120       7.3      50.9
  121      55.9     -50.7
  122     -36.1      14.1
  123     -27.6     -61.1
  124      -112      60.8
  125     -67.7     115.3
  126      77.4      43.3
  127     -29.9      12.3
  128     -31.1      96.8
  129        75      64.1
  130     104.1      17.1
  131    -108.3     -28.6
  132     -13.5     -13.5
  133     -11.3     -70.9
  134      41.1     -28.4
  135      34.9     -95.8
  136     -93.4     119.1
  137      84.5      82.8
  138      52.9     -40.2
  139      65.9     115.2
  140     -70.7     -32.2
  141        15      32.3
  142    -119.3     114.1
  143      53.6     -24.4
  144      36.2     -64.3
  145     -32.6     -93.2
  146      -8.3    -115.4
  147      70.2      96.8
  148      56.2     -61.7
  149      35.6     -97.7
