    0     -40.2      -104
    1     -27.3      66.2
    2       -27      -2.2
    3    -110.5     -94.7
    4     -56.4      20.9
    5     -62.8    -112.5
    6    -102.4     115.1
    7      82.5     -35.6
    8      60.8     -31.1
    9      37.9     -94.9
   10    -109.8     -81.8
   11     114.9      63.7
   12     -51.7     109.5
   13       105       7.1
   14     -48.3     -79.8
   15      72.4     -49.3
   16     105.5     -36.6
   17     -16.5      69.3
   18        29      94.8
   19     103.4       -52
   20     -53.2    -103.3
   21      63.2      70.3
   22     -87.4     -61.5
   23     -11.3      46.8
   24      33.1      38.6
   25    -111.2     115.3
   26      -102     -95.3
   27     -37.7    -114.9
   28     -58.6      84.3
   29     -28.7    -119.4
   30      11.7        63
   31      98.6      98.5
   32      69.3     -17.7
   33     -29.2     -81.9
   34       1.4    -113.6
   35     -25.8     -81.3
   36      53.4      41.9
   37        81     -58.7
   38      87.9    -100.6
   39      67.7      49.7
   40     -97.1     -26.3
   41       4.8     -53.7
   42      39.4      62.5
   43      18.5      83.2
   44     -56.9      33.8
   45     -87.8      22.6
   46     -15.2      16.7
   47      88.1       -28
   48      57.9    -118.4
   49     -35.3      72.1
   50      36.8     -30.3
   51     -32.7     -53.6
   52     -61.6      29.1
   53       114     -76.3
   54     -53.4      25.3
   55      54.9      96.1
   56      94.3      27.3
   57     -68.4        90
   58       7.5     -90.1
   59      81.9     104.2
   60     -32.5     -23.4
   61     -67.3      -8.8
   62      38.7      71.7
   63     -37.1     109.8
   64     -19.5      -5.4
   65       2.5      -8.3
   66     106.6       4.1
   67     -54.4      14.9
   68     -44.8        79
   69      48.9     -70.1
   70      56.5    -106.7
   71      59.1     -79.7
   72       1.9    -119.4
   73     -45.6      -4.3
   74      51.6     -20.7
   75      80.2     -18.4
   76     -24.6      91.5
   77      45.5      53.1
   78     -78.4      68.4
   79      18.9     -70.6
   80     -62.9      82.4
   81    -114.7      90.7
   82       6.4     -69.1
   83       -98       -37
   84     -84.2      84.4
   85      24.4      93.3
   86      78.3        95
   87        75      87.4
   88     -57.2     107.1
   89    -121.8      65.6
   90         2     109.2
   91      70.9      91.8
   92     118.1     -14.6
   93      26.9     -35.5
   94     -61.7    -114.7
   95     -50.6     -76.1
   96     -25.9      66.6
   97     -90.1        28
   98      88.9     -26.2
   99     -41.4       -27
  100      66.8      98.3
  101     -57.5      36.7
  102       -15        40
  103     -17.3      41.9
  104       -63     -23.8
  105       3.4     -52.9
  106       1.5     -67.7
  107      -2.9     -65.4
  108       5.6     -86.7
  109     -95.1     -53.5
  110     -25.8     -72.9
  111      65.6       -47
  112      84.7      28.8
  113    -107.4     -72.5
  114        43     -93.5
  115    -120.6      82.1
  116     113.7      89.7
  117     -43.1      91.6
  118      62.4       -92
  119      36.1      59.3
  120     -49.2    -106.5
  121     -93.7      -3.3
  122      17.5      95.2
  123     -68.4      84.8
  124     -73.4      46.4
  125     -41.1     -46.6
  126     -16.6     -95.5
  127      75.9       -24
  128     -35.3     -33.5
  129     -98.7    -109.6
  130     114.6      28.7
  131        46     -61.4
  132     -47.7     -56.1
  133     -14.8      79.2
  134     -67.1     -83.1
  135    -113.4      26.1
  136    -102.7     -63.2
  137     -97.4      60.1
  138        86        63
  139      76.8      -3.8
  140     116.2     -16.2
  141     -11.7     -83.3
  142     -11.3      54.5
  143      62.7      50.9
  144     -11.5      37.6
  145      11.8      -5.2
  146      -114     -53.6
  147      -6.6        22
  148     -86.8     -49.7
  149     -47.8      41.2
