    0      95.5     -21.9
    1      22.4      70.4
    2     -87.3     -60.4
    3     -39.4       4.1
    4      19.4      40.5
    5       -38     -15.8
    6      33.8       8.4
    7        -1     -70.2
    8      -8.1      55.9
    9     -28.9      29.1
   10     -32.4     -53.8
   11     -65.7     -21.6
   12     -19.7      -5.1
   13     -80.1      48.5
   14        22     -85.7
   15      27.3     -66.4
   16     -65.7     -93.6
   17     -31.2      40.1
   18     -32.5     -88.3
   19     -49.9     -28.9
   20     -47.8      18.3
   21      66.2      62.8
   22     -84.5     -60.9
   23      95.4     -71.4
   24      72.1     -36.8
   25      70.8      68.8
   26      22.7      86.5
   27     -87.5      99.7
   28        89     -70.5
   29       100      60.6
   30      19.8     -53.1
   31      67.2     -46.3
   32      -4.5     -63.2
   33     -98.4     -26.9
   34     -34.4     -45.6
   35      26.7     -19.8
   36      48.5      37.1
   37      52.2      80.5
   38      25.6      47.4
   39        70      58.7
   40      60.6      39.9
   41     -20.4     -71.6
   42        76      57.3
   43       -77     -47.2
   44     -83.3     -36.1
   45      10.4      -8.9
   46       -67      21.1
   47      18.7       -70
   48     -85.2        12
   49      42.7        53
   50         6      20.4
   51     -17.8     -93.7
   52     -66.8      72.4
   53      43.8     -83.8
   54     -22.8     -55.9
   55     -58.9     -84.7
   56      21.3     -55.6
   57     -27.2      32.4
   58     -95.1       -23
   59      60.5     -96.6
   60      16.2      89.3
   61     -71.8      59.6
   62     -47.1      13.2
   63     -96.9      48.6
   64     -15.7     -94.3
   65     -79.3     -55.2
   66     -55.8      -6.2
   67      14.4       5.7
   68      87.4     -69.2
   69      70.9     -69.8
   70     -60.3     -29.1
   71     -66.8      75.2
   72      74.2     -33.9
   73      31.8        86
   74      42.7      95.4
   75        26      98.5
   76      -3.2     -72.1
   77      36.2       -33
   78        27     -69.6
   79       -52      76.7
   80     -47.8      23.1
   81     -29.9      -5.5
   82      -8.5      89.8
   83     -72.4     -84.1
   84      48.4      50.5
   85      69.7     -36.1
   86      38.8       0.9
   87      76.9      96.2
   88      -4.2      25.9
   89      44.3      76.2
   90     -20.9      -6.8
   91     -73.2      66.1
   92     -75.9     -66.7
   93      23.9      95.3
   94      59.1     -88.3
   95     -12.8     -37.2
   96      23.2       0.6
   97     -68.2      29.7
   98       -84        55
   99     -68.1      55.9
