    0      29.6      10.3
    1      -3.2      10.4
    2      74.9      -8.3
    3     -69.1      83.1
    4       -97       -43
    5     -77.3     -64.1
    6     -13.5      -0.1
    7      56.4     -80.7
    8     -34.6      25.8
    9      39.9     -60.7
   10     -65.9      16.2
   11      34.5      92.4
   12     -40.7      -0.6
   13     -30.2      47.8
   14     -38.5     -68.3
   15     -76.1      29.9
   16      -9.9      -3.7
   17      51.7     -40.1
   18      24.5     -73.3
   19      40.8        12
   20     -69.3      58.9
   21     -21.9     -60.5
   22     -92.7     -78.6
   23       6.5      28.6
   24      49.4      66.6
   25      54.8      35.3
   26     -36.3     -48.3
   27      20.2     -38.6
   28      64.6     -25.5
   29      86.2      26.2
   30      83.8      70.3
   31     -43.6      90.7
   32      23.5     -23.4
   33      85.1      89.7
   34      85.3     -28.1
   35      87.5     -72.2
   36       5.8      -6.2
   37       8.2      -2.7
   38     -70.3     -55.6
   39        32     -28.3
   40      52.7      87.4
   41     -83.9      33.6
   42     -36.1     -55.4
   43     -73.6      -8.9
   44     -79.1      -2.7
   45     -41.6      40.9
   46     -13.2        -1
   47      23.6      31.9
   48      61.7       5.5
   49     -15.8     -11.2
   50     -59.9     -70.6
   51       -85     -51.4
   52      24.3     -76.1
   53     -23.4      68.8
   54      25.5       3.9
   55     -21.7      61.9
   56      85.2       8.2
   57     -86.3     -86.4
   58      45.5     -87.5
   59      50.3     -59.7
   60     -97.8      -4.4
   61        53     -58.1
   62       -30      68.2
   63     -75.6     -92.7
   64      -7.3      68.6
   65        42      27.6
   66     -72.2      32.4
   67      73.5      73.6
   68      38.4     -57.3
   69      53.1      94.7
   70      22.8      65.8
   71      -2.7      93.8
   72      13.4      80.2
   73     -55.9      36.5
   74     -24.4       4.3
   75      -4.9      48.7
   76     -61.3      28.4
   77      42.9     -39.4
   78     -10.2      59.7
   79     -36.4      52.2
   80      61.1      82.7
   81       -42     -42.3
   82      43.5     -54.6
   83      19.5     -16.7
   84      56.5      74.6
   85      13.6      -3.2
   86       5.6     -72.5
   87       -53     -56.7
   88      59.6      85.9
   89     -90.3     -55.5
   90     -22.7         0
   91      70.5      37.6
   92     -82.9      86.1
   93       7.2     -90.5
   94      58.4     -13.7
   95     -47.5        83
   96      67.3      95.9
   97        38     -88.1
   98     -61.3     -35.8
   99     -84.2      39.5
