    0     -45.5       -52
    1       -31    -106.4
    2      39.8      52.5
    3    -140.3     -15.9
    4     -81.2     -44.5
    5      -137     -82.7
    6     -50.4     -14.8
    7       5.5     103.7
    8     106.8     123.1
    9     -79.8     -47.8
   10      50.1     -22.9
   11      89.4     -43.4
   12     -50.6    -136.2
   13      43.7     -57.7
   14       140      46.9
   15       118    -101.6
   16      72.8     115.2
   17     -31.5      88.9
   18     -12.8      59.7
   19    -111.2     101.8
   20     136.5     -43.3
   21     104.3      14.2
   22    -137.6      98.5
   23     132.3     -50.6
   24      90.1      -111
   25    -124.5      75.5
   26     -18.8    -116.5
   27      23.5    -140.7
   28      55.3     -68.4
   29      44.6      35.9
   30     -19.3      59.7
   31        87     -97.5
   32     -38.8    -129.5
   33      -5.8    -115.5
   34     123.2      -4.9
   35        61       6.6
   36      61.3     -35.4
   37     120.9     -12.1
   38      -2.1     -15.1
   39    -101.8        54
   40      74.9     135.8
   41      34.5       6.8
   42      77.2     -34.2
   43     -42.9    -125.8
   44      56.7    -100.3
   45    -106.2     -36.2
   46     -75.6      98.8
   47      99.2     -23.9
   48    -109.3    -117.6
   49      86.1      76.8
   50     102.8     118.3
   51     -49.7       -81
   52     -51.4     129.8
   53      96.3     -76.8
   54      -110     -14.6
   55      42.9     -38.4
   56      89.6       2.6
   57     -51.8      35.8
   58     103.2    -129.1
   59    -108.3      67.4
   60     107.4     -59.6
   61      -9.6       9.2
   62      38.2      33.6
   63      52.3     -68.1
   64     -70.6      16.9
   65    -129.9    -115.1
   66      83.4      27.8
   67     -14.4      32.8
   68       133      82.6
   69      81.2      19.6
   70     138.7        62
   71     -95.4      35.8
   72     -40.2      82.8
   73    -118.8       2.8
   74      44.6        -5
   75     119.5     -85.3
   76    -123.2     -11.7
   77      37.3         6
   78      45.4     -81.3
   79     135.2     120.5
   80     -57.5     -97.6
   81     -32.3      52.4
   82    -121.5      71.2
   83      40.5     -48.3
   84     -99.5      61.6
   85      -5.4      27.1
   86    -127.4      79.9
   87     -41.6      49.6
   88    -127.2    -114.5
   89     -33.8    -137.3
   90     107.2      73.2
   91      95.6      -6.7
   92     -40.3        22
   93    -112.8     -97.7
   94    -110.5      -6.2
   95     -18.7      19.6
   96    -125.2      57.1
   97      22.4      27.6
   98      86.1     -64.9
   99      -2.4      98.7
  100      26.5      67.5
  101     -94.8      92.3
  102     132.4      89.3
  103     124.3      31.8
  104      94.9      92.3
  105     -78.7     -32.9
  106    -128.8      25.7
  107     129.8       8.1
  108     -98.2      64.1
  109     106.9        43
  110      16.5     119.6
  111        79     -73.1
  112      32.4     -84.3
  113     109.4     -62.9
  114     114.4      55.4
  115      30.1      24.3
  116     -44.5    -137.1
  117      31.3     -87.7
  118     -76.9      43.4
  119        49     -15.3
  120     125.8      18.6
  121    -103.1     -64.1
  122     -17.1     -42.2
  123       -23     -80.5
  124    -107.5    -100.6
  125       2.4      41.6
  126     -35.3      59.9
  127      79.5     113.2
  128     -45.4      84.4
  129    -110.1      22.2
  130      -126     -75.3
  131      38.1      98.8
  132      57.4     100.6
  133    -104.8    -137.2
  134    -119.8      80.5
  135       -48      -116
  136     108.4    -130.3
  137     -89.1      67.8
  138    -100.9    -122.2
  139     -35.5     -56.5
  140     -81.6     -79.4
  141    -123.9       -92
  142      56.6      45.6
  143     -75.4     -22.7
  144     106.1      85.8
  145      20.7      74.9
  146      59.9      67.1
  147     -69.5       102
  148     -64.5      67.4
  149      15.1    -129.8
  150      13.4     -39.9
  151      61.8     -38.7
  152       -17    -104.5
  153       131     -70.2
  154    -139.2       -21
  155    -135.3     -12.4
  156      45.3       0.5
  157      -102      48.8
  158       -11     -71.5
  159     129.2      19.4
  160     -97.3      50.7
  161    -101.6       1.6
  162    -104.9      63.3
  163     -92.8      69.2
  164     118.4     -59.9
  165     -69.3     -24.9
  166     -11.2     -91.5
  167      51.5     139.5
  168      51.4     107.4
  169      28.8      49.7
  170      47.3      76.1
  171      22.7     -67.1
  172     136.4      56.1
  173     105.7     139.1
  174     -38.8      27.7
  175      88.8    -132.9
  176     -32.1    -128.5
  177     -84.4     105.2
  178     -48.8     -38.6
  179    -105.5       9.2
  180      85.8     -60.3
  181    -104.1        51
  182     -25.5      55.3
  183    -114.9        33
  184     130.3      -2.7
  185      71.8     -58.1
  186      12.3    -113.6
  187     -53.5     -83.9
  188     134.3      48.4
  189     123.1     -31.5
  190     110.6       1.1
  191      53.9     -32.2
  192    -123.9      49.1
  193      50.6     -42.6
  194      -108      -5.5
  195     109.8     -95.5
  196     -39.1      49.2
  197      32.1      85.9
  198      77.4    -131.1
  199      99.4      75.9
