    0    -132.1       5.3
    1    -139.7     -27.3
    2    -129.1     115.2
    3      26.6       -62
    4      56.3     -32.3
    5     105.1     -99.6
    6       1.8     -79.8
    7     -81.7     104.9
    8     -26.4     -23.1
    9         7     -50.8
   10     -11.4     -42.5
   11      30.5     137.9
   12    -126.6      61.4
   13     -69.5     -69.6
   14     -59.5    -139.1
   15    -115.4      -2.6
   16        70     104.3
   17       7.6     105.7
   18     -80.3       5.1
   19      59.2    -108.1
   20      26.5      37.6
   21     116.8     121.9
   22      34.6      95.8
   23     -69.3       6.3
   24      18.1       -68
   25    -102.1      96.2
   26       5.6     -87.9
   27     -39.3     123.8
   28       8.8     -20.2
   29       -71     -96.7
   30    -107.8     -58.9
   31        72     -11.6
   32     -25.3      91.1
   33     119.9      49.1
   34      11.1     -65.3
   35      32.6     125.5
   36     -20.3     -52.5
   37     113.4     -99.8
   38      42.7    -103.2
   39    -124.8      18.9
   40       4.8      78.6
   41       5.6      38.2
   42    -135.3     120.4
   43      70.9     130.1
   44      94.6      12.2
   45     -28.5        -4
   46     139.5     -10.3
   47      44.3    -136.8
   48     -24.7     -15.1
   49     -72.5       118
   50     116.5      61.2
   51       110     -62.8
   52     117.4       9.8
   53      74.3     -68.5
   54     -18.2      90.6
   55      58.7     139.6
   56      13.9     -35.3
   57        65      77.1
   58     140.8      56.6
   59      35.2      76.4
   60    -121.6     140.5
   61     -99.2     -95.6
   62     -27.1       -50
   63      41.8      98.9
   64       121      -9.7
   65      15.9      37.2
   66       4.2      21.6
   67      40.7      -132
   68      15.1    -124.2
   69     -12.3      39.8
   70    -113.2      78.6
   71      91.3     -84.5
   72        64    -112.9
   73     101.8     -75.5
   74        78      84.9
   75     -40.1      -3.1
   76      -108     -32.3
   77     132.5    -137.9
   78      -110      91.3
   79      -109      -123
   80     117.6     -67.4
   81     133.1      68.8
   82      86.1        61
   83       5.6       9.4
   84      32.9       -54
   85     132.7      22.3
   86    -127.8    -129.9
   87      15.4     136.7
   88     111.9      45.9
   89    -131.6     111.2
   90     127.7      49.3
   91     100.7      40.5
   92      41.5     127.8
   93     -36.9      76.5
   94     -96.1    -118.7
   95     131.9     -96.3
   96    -109.1     104.5
   97        36    -115.3
   98       7.2     -95.2
   99      53.7       3.4
  100     -94.9     -39.9
  101     -48.8       -68
  102     131.5      82.7
  103      22.9      15.6
  104      52.6     -19.9
  105     -27.7      13.9
  106     -25.4     120.1
  107      17.5     -93.5
  108    -110.5      29.9
  109     107.9      -118
  110     106.9     -40.7
  111      44.4    -128.1
  112    -130.7     137.5
  113      54.3     -23.8
  114      55.9    -113.8
  115     101.5    -111.3
  116    -131.6     124.6
  117      21.6      77.4
  118      91.9     -32.1
  119    -108.3       7.2
  120       1.8     -22.1
  121     -98.5     110.8
  122     -53.1     -52.2
  123     -16.3     -27.3
  124      64.7     114.1
  125    -119.2      -2.8
  126     106.6      -119
  127     -95.7    -129.4
  128     137.5     130.2
  129     -37.5     -37.8
  130        36     100.6
  131     -66.6     100.4
  132      97.7     -14.8
  133      85.7    -105.4
  134     105.6     -50.6
  135     113.5       117
  136      13.1     -51.6
  137        -1       7.5
  138    -112.1      72.6
  139     140.8    -114.3
  140       6.2    -122.4
  141      14.9     -14.3
  142      -128        92
  143     137.1     103.9
  144    -127.7      84.4
  145       108      -0.7
  146     112.4     123.3
  147      47.7      60.3
  148    -139.8     118.7
  149    -106.4     -78.8
  150      40.1     -69.2
  151     -80.4     -98.8
  152      78.6     -14.1
  153      52.4     129.4
  154       2.2       -49
  155     -66.3     -29.5
  156     -62.6     130.8
  157     123.8       -51
  158      15.3     -45.9
  159     -91.8      44.1
  160      -119     -95.1
  161       0.9     -64.5
  162     -34.5     137.9
  163     -35.5    -131.3
  164      53.5    -123.3
  165      50.5     104.4
  166     124.5    -140.1
  167     101.3    -123.4
  168     128.7      87.7
  169     140.4      29.2
  170       9.9     -70.5
  171      85.6     102.7
  172      20.2    -105.2
  173       112     -37.8
  174     100.2         1
  175     -57.3     124.3
  176      63.1     -36.5
  177       6.1    -125.6
  178       -81      89.9
  179     -82.4      22.5
  180     103.5     -75.7
  181      42.2      82.9
  182     102.9      10.4
  183     -92.2     110.3
  184      32.2    -127.8
  185      68.2      79.4
  186      -7.7     116.7
  187      59.3      -9.7
  188      72.4      68.2
  189    -107.2      73.6
  190      51.4     -35.5
  191     -12.3      45.9
  192     -25.5     -28.9
  193     -66.5    -106.8
  194      93.8     -31.1
  195       8.7       5.1
  196     -61.6     -16.7
  197     -72.5      33.2
  198      80.9     136.3
  199    -134.2     -61.8
