    0    -108.4     100.5
    1     132.8      59.8
    2      50.5     126.3
    3     -71.1      69.6
    4      33.4     151.4
    5     -99.4     107.6
    6      92.8       -13
    7      14.8      18.6
    8      36.6     128.8
    9     132.7     124.5
   10     -28.4      39.4
   11     145.5      68.1
   12      21.2     142.7
   13      35.8      88.1
   14      12.6     112.6
   15      -5.2     -80.9
   16     -23.3     102.6
   17     -67.5     141.7
   18     -74.9      28.4
   19      89.5     -86.8
   20      64.6      73.3
   21    -123.6      13.2
   22     -85.6      55.8
   23     126.8        76
   24      12.2    -118.3
   25    -115.9    -104.9
   26     -62.7     -15.4
   27    -140.3     -10.4
   28     126.1    -131.6
   29      -107     -57.8
   30     -54.4     -24.1
   31      21.2     127.4
   32     132.9       -59
   33      73.2     -33.3
   34    -147.5      29.6
   35     128.5     -90.3
   36     -43.8      88.7
   37     -84.9     -37.5
   38    -145.3     -33.6
   39     118.6      65.1
   40    -100.3     146.5
   41    -114.8    -120.2
   42    -153.6     -77.4
   43     127.1     133.3
   44     -76.6      73.2
   45     -39.7     -87.6
   46     136.1      94.3
   47      -8.8     -42.3
   48     -94.1     110.3
   49      98.4      34.8
   50      -8.4        48
   51      55.1       111
   52     -52.6      -125
   53       116      53.2
   54        16     123.4
   55     120.2      -9.2
   56        79    -137.6
   57     -78.3    -147.2
   58     139.3    -125.1
   59      13.8     -95.9
   60      12.8       -15
   61     104.8    -155.7
   62    -138.3    -130.1
   63    -118.4      -126
   64      -122    -109.8
   65      35.8      26.5
   66     116.3    -107.2
   67      -112     -92.5
   68      50.3     106.9
   69       114    -120.9
   70     115.3    -125.7
   71     -44.5     144.6
   72        71     -86.2
   73       -53      32.6
   74     -76.7      70.7
   75    -140.5     -58.4
   76     134.7     145.2
   77      45.3      28.2
   78     -89.1    -139.8
   79      -4.6        -5
   80      88.5    -126.1
   81      80.7      66.5
   82     -68.6    -103.1
   83     -27.8     -76.3
   84        50     -71.6
   85      28.1     110.7
   86     116.6      38.3
   87      90.2     156.2
   88     117.3     -29.3
   89      82.6     134.2
   90     132.6      -1.6
   91        14     -92.4
   92     118.8    -119.5
   93     -15.2     -65.5
   94      55.3    -118.1
   95      13.1      93.6
   96      33.6        72
   97     -35.5      91.9
   98      20.5     -31.6
   99      30.1     122.8
  100     136.2     112.8
  101     144.9     -33.3
  102     -85.2      61.9
  103      51.9     -58.2
  104     -83.4      68.3
  105     -14.4         1
  106      52.4     -14.2
  107    -111.2      66.3
  108    -116.9     147.1
  109     -22.2     110.1
  110        -3     -40.9
  111     -58.6     -86.9
  112     -69.9     -87.5
  113     -97.8    -147.9
  114     -49.8     -93.3
  115     110.4     122.1
  116     -44.2     -96.9
  117       -29      58.1
  118     -32.5     -85.2
  119      10.1      19.9
  120    -111.8     -24.8
  121     113.2     -79.5
  122    -153.6       -64
  123    -146.6      20.4
  124        67      54.3
  125     -68.9     -33.5
  126       1.2       7.3
  127     112.7     115.2
  128      84.2     136.6
  129     -38.9    -142.8
  130    -150.4      34.7
  131     -44.5     141.5
  132    -123.8    -144.7
  133     129.2    -139.5
  134      31.5      90.4
  135     144.2     -68.6
  136     -91.4     141.4
  137     142.2      -7.1
  138     -74.3     -40.4
  139     -28.8     -25.2
  140     134.5      25.1
  141     -81.1      -8.9
  142       -52     149.5
  143     -78.8        68
  144     -57.6       -45
  145      59.9     113.3
  146      95.3     -65.3
  147     -50.4      55.1
  148      38.1       -57
  149     145.6     -74.3
  150       110      25.1
  151      11.5     135.5
  152     -57.2     118.4
  153     -82.3     130.6
  154      -0.3      58.6
  155      -0.6       105
  156     -45.6    -100.3
  157    -132.3      -148
  158     -35.8      83.9
  159      35.3        58
  160     -11.5    -108.1
  161     -30.6       123
  162      46.2      28.3
  163    -145.2      23.4
  164      38.8    -126.9
  165      30.6     -14.2
  166     137.6      -5.1
  167       127     113.8
  168      45.1     138.8
  169      84.3      58.3
  170      25.2     126.3
  171        21     -75.4
  172     116.6    -116.3
  173    -128.3     -22.3
  174     107.7      32.2
  175    -131.2        26
  176      -153    -111.4
  177     -55.6     149.4
  178     -59.7      -3.6
  179      75.3    -138.5
  180    -119.5      33.9
  181     -37.8     -98.5
  182     -20.6    -148.8
  183      67.8     -49.5
  184      42.4    -147.2
  185    -125.5     -54.6
  186    -110.5     -52.8
  187       129    -134.3
  188      35.8       -84
  189    -123.2     -23.1
  190      51.1     107.5
  191     109.8    -116.8
  192    -136.8     -63.9
  193      91.3     -48.3
  194     -53.3      43.4
  195      76.9     -13.5
  196     -29.7       -85
  197     -29.4     -22.3
  198      63.5     -31.3
  199      52.7      15.8
  200    -149.6       -92
  201       -47      89.3
  202        43     145.5
  203     110.3      14.8
  204    -152.5       -15
  205      -2.8     -97.2
  206      29.9        -2
  207      -124     143.1
  208     155.5      74.4
  209      52.7      49.9
  210    -151.1     -50.8
  211     -32.7     154.2
  212    -143.7       3.6
  213     -62.4      15.9
  214     116.9     -18.6
  215      -5.6      18.6
  216       106      53.1
  217      -112       -32
  218     -81.1     -27.3
  219      77.6     112.8
  220      92.2     128.4
  221    -117.5     -63.1
  222    -105.4     -84.5
  223    -124.8      25.8
  224       -17      77.1
  225     -45.3       144
  226      -6.4      16.7
  227    -135.7      90.6
  228     123.2    -112.1
  229       -87     -54.3
  230     113.5      46.8
  231     131.7       -46
  232     -45.4      86.5
  233      47.8     135.8
  234     145.1     151.4
  235     153.4    -129.1
  236     135.1     117.4
  237     -17.5      73.1
  238      58.4     -36.7
  239    -123.1     -14.5
  240     -42.4      83.3
  241      91.5      62.4
  242      26.4     124.5
  243    -104.7     124.1
  244    -135.2     153.9
  245     114.3     141.1
  246     -42.2    -102.2
  247        81     103.4
  248    -105.2    -144.3
  249      20.5      11.4
