    0    -155.7     -67.9
    1     128.1     -79.2
    2     -29.4     -12.6
    3     139.7     -28.3
    4     -80.5      24.2
    5     130.2     127.8
    6     -10.7    -140.4
    7       -65      21.3
    8     -79.9      98.7
    9       0.4     -97.7
   10      38.7    -154.4
   11      73.6      27.4
   12     -25.1     120.8
   13      51.4    -108.2
   14        54    -120.2
   15     -45.9      82.7
   16    -113.9     127.7
   17     -53.7    -111.4
   18    -111.5    -134.8
   19    -101.9      77.3
   20       -55      -7.7
   21      37.7    -131.3
   22      -8.5    -147.4
   23     -18.3      45.7
   24    -108.7      17.5
   25     -97.7     -37.4
   26     -86.7     100.8
   27    -145.8        79
   28     124.4     146.9
   29      75.2      -7.4
   30        10        71
   31    -140.5       119
   32     109.5       6.3
   33      32.1     155.7
   34      27.9     145.9
   35     -13.6       -51
   36     -16.2        89
   37       2.1       7.6
   38     -61.5      70.9
   39     120.9      15.5
   40     -10.4     -19.9
   41     -23.2      -144
   42    -133.5     120.5
   43      23.5     -82.2
   44     -52.4     -62.1
   45      22.7     140.2
   46      55.8     -65.7
   47     -23.3     -59.7
   48      32.8     143.9
   49       0.5      59.2
   50       -72      78.5
   51    -107.2     -62.4
   52        11       152
   53       -43    -125.8
   54        24      12.9
   55      40.7      -2.4
   56      93.9     113.3
   57     -76.8     -67.8
   58    -122.7      47.3
   59     -83.3      37.7
   60       -62       -12
   61      69.6    -113.4
   62      34.3      19.6
   63      -1.3     -85.4
   64    -104.8     -98.2
   65     -49.1      12.7
   66       7.1      67.2
   67      63.2        48
   68      90.6      68.4
   69         4    -125.2
   70      56.3      16.1
   71      70.9        29
   72    -144.2     -39.1
   73     -75.4      36.7
   74    -144.8     -84.8
   75     142.7     -45.3
   76      46.1    -106.9
   77     -72.6    -139.8
   78      35.5     136.3
   79     -55.6      64.2
   80      24.9     -45.3
   81     150.2     -73.9
   82     -17.8      91.9
   83       5.6     -60.4
   84      59.3      90.8
   85      96.7     -88.1
   86      90.8      -6.3
   87     -80.6     117.2
   88     -36.2      64.3
   89      15.8     143.9
   90     -43.2     -34.4
   91      56.2     103.6
   92      -4.9     -69.5
   93     107.6    -130.2
   94      80.1     -14.8
   95    -157.5      65.8
   96    -109.2      78.6
   97      85.2     153.8
   98     133.4      23.5
   99    -130.3    -125.7
  100    -157.1    -110.9
  101      40.4      16.4
  102     113.7      66.1
  103       -64     -75.9
  104     -68.7      66.2
  105      83.6      40.1
  106     -46.4      15.3
  107       -30     -58.7
  108     -86.8     110.7
  109      25.3    -147.6
  110     119.8     106.3
  111      47.7    -117.7
  112      -1.1      98.9
  113      42.9     -85.4
  114      39.5     -59.4
  115     131.2        84
  116      87.9     130.5
  117     124.3      31.8
  118        42     -70.9
  119    -151.8      29.9
  120      -7.2     -25.2
  121    -133.1     -43.6
  122    -136.3      88.5
  123    -109.3      -157
  124      17.4    -138.3
  125    -104.1    -126.4
  126      36.9     -16.8
  127     -23.5      79.3
  128      -4.2    -109.7
  129    -154.4     135.5
  130    -157.8       129
  131      11.4     139.4
  132     -50.1     -48.4
  133    -142.5     -70.5
  134      39.6     117.8
  135      25.5      37.2
  136     155.3    -152.6
  137     -95.9       -64
  138     -47.6     100.6
  139     150.6     154.5
  140     -18.5     -75.3
  141     102.3     127.2
  142       -39     -61.3
  143       3.4     -71.6
  144     -66.9       9.2
  145     116.2     -24.1
  146     -69.9     133.8
  147       5.8    -102.7
  148     -62.8     118.4
  149      -135     125.8
  150    -114.5     110.9
  151    -100.7       151
  152    -117.1     107.1
  153     -46.2     150.5
  154      99.6    -141.4
  155       144     -72.1
  156    -115.6     142.4
  157     -68.6     -12.5
  158     -47.7      -129
  159    -119.4       -64
  160     -48.6     112.9
  161      64.7     -12.2
  162      -9.3      23.7
  163     -12.4       133
  164      14.9    -133.7
  165      -8.3       -99
  166     -78.8     -89.8
  167    -141.3     -85.3
  168      -7.5     -38.1
  169     -57.9     -47.9
  170     116.4       8.7
  171     -92.8      81.6
  172    -106.3        91
  173     102.1       -95
  174       1.8    -114.1
  175       2.2     -53.5
  176       -36     -91.6
  177      17.7     -96.7
  178     -41.7      74.7
  179     155.9      12.1
  180     -78.9      60.2
  181     -65.7     -72.1
  182     103.3      41.1
  183     -13.2       106
  184     125.9     -66.5
  185     -36.6        85
  186      60.4     140.6
  187     118.2     -75.6
  188     -50.1      27.9
  189       -79     142.9
  190      31.7     -19.8
  191     140.3      90.8
  192     -26.8     100.1
  193     153.1    -100.9
  194      14.2       138
  195      87.8     -65.3
  196     114.8        34
  197    -126.6      59.8
  198       3.4     -27.8
  199      60.6    -107.1
  200      13.8     -39.2
  201     -36.3    -157.9
  202     -79.6      51.3
  203    -115.1      -0.4
  204      82.4     -56.2
  205     126.6     144.5
  206    -105.3      42.4
  207      76.9     154.2
  208        70    -138.6
  209      -131     -35.9
  210     -45.6     -43.5
  211       2.1     -44.9
  212    -120.1     119.4
  213     157.4     -37.7
  214      71.6      11.6
  215      -133        -6
  216     107.8      32.3
  217      56.9     -91.5
  218     -68.2      61.2
  219     -94.8    -127.3
  220      93.4    -120.9
  221      45.4     113.5
  222       6.7    -147.9
  223     -80.5    -107.5
  224     118.5      -4.4
  225      -4.7    -100.4
  226     137.9     112.1
  227     127.5      98.1
  228      -147      65.1
  229      38.8      61.1
  230      57.2      42.7
  231     150.7     150.2
  232       0.2    -130.5
  233    -107.1     149.8
  234     -54.9      66.1
  235     -61.3      27.6
  236    -125.8     -76.9
  237     119.7        66
  238      82.2      28.5
  239       102     -20.4
  240      71.5        91
  241     -50.3     -48.6
  242     -93.4     130.3
  243      70.8      42.9
  244     127.7     -14.5
  245    -114.3     -37.3
  246     -43.8     156.3
  247      86.1      72.6
  248       4.5    -124.2
  249     -78.6     -72.1
