    0      51.3    -119.4
    1      96.5     -75.5
    2     112.3       -84
    3     -14.4      11.8
    4     -45.4      -2.1
    5      22.2      38.5
    6    -100.1     -89.2
    7    -127.6       140
    8      25.4        87
    9        55     -59.9
   10      33.1     -81.6
   11      -9.6      69.2
   12      89.2     -72.5
   13     -15.3      53.7
   14     139.3      48.9
   15     -68.5     130.8
   16     140.7     -44.4
   17      63.5      16.3
   18     127.7    -115.8
   19     -80.2     -77.8
   20      13.6      -3.5
   21      15.2     -43.5
   22      18.3     118.4
   23     121.1      97.2
   24     -66.6    -135.6
   25      54.6     -23.8
   26      88.9    -137.6
   27     -12.6     102.1
   28     -24.1     139.3
   29     -32.8      89.4
   30     -71.7      46.5
   31    -107.2      36.4
   32     125.7      17.8
   33     -82.7        56
   34      63.9     -50.7
   35     -15.6    -130.5
   36      88.1     134.2
   37      -120     -44.1
   38     -42.7       107
   39     -85.2     -38.3
   40     -18.3       -82
   41     -44.5      93.1
   42     -15.6      40.9
   43      19.7      69.5
   44     -61.5     -78.9
   45    -127.6     -51.9
   46        66     109.1
   47      -7.6     -62.6
   48      21.7      92.1
   49     -64.1     126.4
   50      25.3    -131.4
   51     132.3      65.2
   52    -104.1     -81.8
   53      37.6     -28.4
   54     -17.9      -2.7
   55      89.9     114.5
   56       -57    -128.4
   57     110.5    -133.3
   58     -65.6    -119.5
   59     -96.4      28.7
   60    -124.4     -70.1
   61      55.1      45.1
   62     -59.3    -114.1
   63     -56.8     -80.3
   64     -76.8     -34.6
   65     -17.1    -139.3
   66      54.9    -133.7
   67      43.3     130.5
   68        80      27.7
   69       -69      53.4
   70      14.3        95
   71      81.7      64.6
   72     -48.5     -42.8
   73    -105.7     115.6
   74      91.6       121
   75      28.3      10.7
   76      46.8      21.1
   77    -107.7      64.5
   78       7.3      57.1
   79      30.8      42.9
   80       4.1      32.7
   81        72     134.7
   82     133.5      69.7
   83     -29.9     -57.9
   84       -47      57.8
   85      -0.9      83.3
   86     -86.2        45
   87    -101.9     140.1
   88     -61.2    -113.2
   89     -40.6      80.8
   90     -16.6      -4.7
   91     -54.2      19.8
   92     -54.7      93.9
   93      38.8      86.6
   94      94.7      78.2
   95     -14.4      58.1
   96     -46.6    -112.9
   97      84.5     -35.1
   98    -101.4     -54.8
   99      -108     -85.8
  100      34.5     -70.1
  101     -15.6      58.2
  102      42.9     -40.9
  103     120.1        79
  104     -84.3     -19.4
  105     -19.9       -36
  106     -78.8      49.2
  107        63      34.2
  108     -10.5      91.6
  109    -111.2      24.5
  110     -29.7    -128.5
  111       111       -28
  112     103.7      11.6
  113      51.7    -107.9
  114        54      -9.8
  115      79.3    -129.3
  116      77.6    -108.6
  117      61.2      89.4
  118       138     134.3
  119     -72.7    -125.2
  120     -27.8      38.5
  121      62.3      81.4
  122    -127.1    -114.3
  123     -50.5       5.5
  124       113       1.6
  125     114.8     -94.1
  126     -96.1     108.5
  127    -126.9      46.8
  128      20.7      87.3
  129    -127.6       7.8
  130     113.5      41.2
  131       -35    -109.1
  132     -85.4     -48.4
  133     -10.2     120.9
  134    -126.1     -75.4
  135     -81.8      58.5
  136      -4.2     -95.2
  137    -101.9      17.8
  138      26.7     138.9
  139      29.7     140.7
  140      46.9     137.4
  141     128.9    -127.2
  142     103.4     -46.3
  143    -125.4     -45.6
  144     -86.5     121.7
  145    -122.4     -45.9
  146      93.5     119.7
  147     118.9      27.7
  148      21.3    -117.8
  149     -37.9     -71.1
  150      -8.2        -3
  151     136.2       6.6
  152     -46.7      31.8
  153    -106.8      36.6
  154       -55     -64.2
  155    -109.1      56.7
  156    -116.6      10.5
  157      56.9     -99.9
  158      -131    -115.3
  159    -118.5       -96
  160      70.6    -116.2
  161     -16.1      51.7
  162     -51.4    -131.7
  163      -8.2      25.8
  164     106.5      62.6
  165      38.2     -31.3
  166      43.3      75.7
  167      69.4     -84.6
  168    -109.3      69.8
  169      39.1     -48.4
  170     -25.4      -1.6
  171     -24.8     -92.3
  172      76.3      22.5
  173    -107.3      77.1
  174     131.5       0.2
  175     -49.9      78.7
  176      13.5      33.1
  177     -24.4    -110.3
  178     135.9     -39.3
  179      -111    -114.9
  180     -41.4      70.5
  181    -136.6     -36.4
  182      81.9      69.8
  183      60.6     -45.6
  184     -66.6      -4.8
  185     -86.8     -26.6
  186     118.6     106.2
  187    -112.6     103.6
  188      30.4        55
  189      61.7      43.5
  190      67.7        20
  191    -136.2      70.9
  192     -92.5    -136.9
  193      69.1      17.8
  194     -77.6     127.7
  195       125    -138.8
  196       9.2      91.5
  197      79.4      33.9
  198      99.9      73.7
  199    -102.3     -14.9
