    0      23.5     -59.9
    1      94.6     -88.2
    2       111    -128.6
    3    -154.9        67
    4        36     -67.1
    5     -28.5     -74.3
    6      25.2     114.1
    7       -82     -84.1
    8     144.7     118.9
    9      76.2    -123.5
   10    -111.7    -150.8
   11      59.9       8.1
   12     108.1     132.1
   13      36.4     -80.8
   14     -92.1     -88.5
   15      29.3     -31.8
   16     -72.2    -134.8
   17      -151      88.9
   18     -99.2       136
   19     -62.9       -17
   20      12.6     -74.5
   21      93.6     -23.6
   22     -49.2     -87.7
   23    -151.8     101.6
   24     117.8      75.1
   25     -26.5    -135.4
   26     157.9    -115.6
   27      53.7      48.8
   28     -95.3      82.3
   29     136.3    -148.7
   30     111.6      55.9
   31     119.7    -131.5
   32    -144.8     136.9
   33    -154.2       117
   34     -17.1     -11.6
   35      -129     132.1
   36        14    -116.2
   37    -118.2     125.8
   38      76.9     146.4
   39      98.3     132.8
   40      34.1    -133.5
   41     106.7     -79.1
   42     107.4     -37.7
   43       145        69
   44    -105.6       6.8
   45     -83.2      36.6
   46      92.2    -107.8
   47     -42.4     -50.5
   48      23.7    -136.8
   49      -4.6      28.1
   50      23.8    -123.6
   51     -36.8     -39.9
   52    -114.4      34.7
   53      -0.7      43.2
   54    -105.2    -106.3
   55      39.4        80
   56      77.4       -31
   57        75      62.8
   58      79.7      80.9
   59     102.3    -105.4
   60      46.2      77.7
   61    -112.1     -28.6
   62    -140.4     102.5
   63     103.6    -128.3
   64     -49.4     -60.1
   65     -98.1     140.9
   66      94.7     -19.2
   67      65.9     -10.7
   68      35.7    -136.1
   69    -144.7       0.3
   70     -67.5      -139
   71     157.9     141.8
   72      46.2     117.9
   73     119.5       -38
   74    -125.4     -28.1
   75    -138.3     112.2
   76     -56.2      42.8
   77     -62.3      70.5
   78     144.1     154.1
   79      22.6      56.3
   80      31.9    -110.1
   81     127.3     112.3
   82        40    -100.1
   83    -116.8     -77.9
   84    -144.3      12.8
   85     132.7     -76.9
   86      -141    -143.6
   87    -155.3      13.7
   88     -14.1     -60.1
   89      -141    -107.3
   90      12.8      48.3
   91    -156.8    -143.7
   92      49.9      -143
   93     -35.7      87.3
   94    -130.7    -120.1
   95       -21     104.5
   96     -37.7      75.7
   97     -20.5    -114.4
   98     108.8     -86.6
   99     -80.8     -94.3
  100     -68.5      66.2
  101     -55.5        24
  102      64.1      53.4
  103       -78       151
  104    -127.2       -99
  105    -129.4      99.2
  106     155.8     140.4
  107       2.9     -29.7
  108       126      -1.2
  109    -124.8      61.2
  110     -56.7     110.1
  111      89.2      62.1
  112      -0.2     118.8
  113      40.3       6.4
  114         7      34.3
  115    -102.2    -100.7
  116     148.2     132.1
  117      -6.7    -146.4
  118      78.6        43
  119     116.4    -126.3
  120     -69.8      42.7
  121     108.8    -151.5
  122      54.1     127.9
  123     148.5    -154.3
  124    -135.5    -110.1
  125     -95.7       2.2
  126      99.3     144.3
  127       5.6     103.3
  128      16.8    -151.5
  129     -46.7      42.8
  130    -154.5         9
  131      26.7      -9.4
  132       5.6      -106
  133      43.9    -118.7
  134     153.9      97.3
  135         6    -105.9
  136        -4     -18.2
  137     -93.8     -42.1
  138      -137       -60
  139     -60.2     -49.7
  140     152.7     107.6
  141     -20.8    -109.4
  142    -156.6     -36.6
  143    -135.8    -101.5
  144       133     -66.7
  145       4.1    -150.7
  146       140     -50.6
  147      49.5      79.8
  148    -117.5    -125.3
  149    -129.4     -85.5
  150      -1.4       -94
  151       -31       105
  152     155.3    -141.6
  153    -130.6     -49.1
  154     142.6    -128.9
  155     152.3     -67.6
  156     -87.2    -143.8
  157      37.1      -6.8
  158      34.3     -86.3
  159     -30.8    -121.4
  160      82.6     -15.1
  161    -143.9    -117.5
  162     -84.8      16.5
  163    -122.3    -120.7
  164      88.4    -143.5
  165    -110.1        47
  166      42.1     156.1
  167     -80.8    -104.6
  168     107.9      20.2
  169     -17.3     -46.6
  170     -37.9     -50.9
  171     149.4    -115.3
  172    -106.1     127.7
  173      25.6       -85
  174        40        75
  175    -155.6     -29.1
  176      -153     138.8
  177     130.5     -62.3
  178    -135.4     104.9
  179     -93.2    -138.1
  180     -84.2     144.8
  181      -104      27.2
  182    -145.6         4
  183     -61.3      46.7
  184     116.3        74
  185     -75.7      61.9
  186      59.2     -64.8
  187      94.6      28.3
  188     143.7     -90.6
  189     -98.4    -136.5
  190       -51     -55.8
  191     129.8     -85.1
  192     -29.8     105.3
  193    -121.6      96.5
  194     138.5    -157.5
  195        68      -3.1
  196      -148     -11.2
  197         9    -110.4
  198      42.7     -80.6
  199       -39    -111.2
  200      58.3     150.1
  201      14.2      27.1
  202      -3.2     -44.1
  203       2.9      80.4
  204       9.1     -24.1
  205     -51.7      16.5
  206     -61.2      15.9
  207      52.8    -105.3
  208     -20.7     118.7
  209      57.1      94.6
  210        28    -145.4
  211     144.5      65.9
  212      -0.7     108.6
  213      42.9     -44.6
  214      38.9     105.5
  215      87.8     143.7
  216      58.3     -45.7
  217     -49.5    -113.9
  218      58.7    -128.6
  219      57.5      -113
  220      31.8      45.2
  221     142.7    -109.9
  222     -40.1    -114.2
  223       -43     -93.3
  224     -35.8     -11.8
  225      53.2     -45.4
  226    -138.5      -132
  227      87.2     -21.2
  228      74.8    -147.9
  229     137.6    -116.1
  230      -4.1    -133.2
  231     -43.3      82.2
  232    -144.5      31.5
  233      72.9     -37.6
  234     -14.8     -93.2
  235     -22.8      54.1
  236      52.3      42.8
  237     155.5     -80.9
  238      51.6     147.2
  239        38      75.6
  240     -54.4      46.5
  241    -104.4     -15.1
  242      55.8     -25.5
  243        15        90
  244      42.4      38.2
  245     126.9     -63.2
  246     155.4     137.2
  247       4.8        51
  248      68.2    -129.8
  249      99.2     -82.2
