    0      18.6     153.4
    1      84.1      65.6
    2    -113.8     -78.4
    3      47.4     115.6
    4      47.9       3.2
    5     -82.3      86.2
    6      31.6      20.7
    7      47.3     154.8
    8    -130.5       -78
    9     -17.6      -123
   10     148.1      30.4
   11       -66     -22.5
   12     151.4    -142.5
   13     -47.4     -33.8
   14      -4.5     114.7
   15     -61.7    -114.3
   16    -149.7      -126
   17     -17.9     116.4
   18     -68.5     -52.4
   19      61.6     -40.2
   20      49.8      15.8
   21    -149.7     -12.1
   22    -129.1     -61.1
   23    -124.6      30.1
   24       -63      51.4
   25      45.4      -1.5
   26    -135.5     129.8
   27     -60.5    -154.1
   28      87.5      47.8
   29      42.2    -146.2
   30        86     -83.2
   31      99.2        74
   32     101.4    -122.4
   33      95.7     118.5
   34     -90.9    -128.9
   35      35.5      19.3
   36        71    -127.9
   37       -86    -123.1
   38    -130.1     -38.6
   39    -146.7     -34.3
   40    -123.7        92
   41    -101.1     -36.2
   42    -125.1    -128.5
   43      77.7     -76.2
   44        99     111.3
   45    -101.6      71.9
   46       -22     146.9
   47     110.1     155.3
   48     133.4     -53.6
   49    -106.7    -150.5
   50     -67.6      63.3
   51    -116.8      -1.2
   52     127.5     -80.3
   53      93.1    -120.8
   54      45.6       116
   55     -23.8      54.1
   56     120.4      87.7
   57     122.4        10
   58    -137.2     -32.6
   59    -127.4     138.6
   60    -148.7      -133
   61     142.4      99.7
   62      49.1      67.5
   63      50.2     -29.6
   64    -129.1        70
   65     117.1         6
   66    -112.5      -3.6
   67       2.5        48
   68    -150.2      81.5
   69      66.1      91.1
   70      -128    -152.2
   71      91.6    -115.5
   72      85.3     -26.3
   73      40.9      28.5
   74     -82.9     -85.6
   75     -36.1     -86.1
   76    -111.7     -26.3
   77     141.5      18.7
   78     133.7     -61.5
   79    -149.2     120.6
   80     117.1     129.4
   81     -60.7      -9.6
   82      65.5     140.2
   83      11.2     128.7
   84      63.5    -144.1
   85     152.8     -52.6
   86    -140.2     -84.5
   87    -101.4     122.1
   88      65.7    -107.2
   89     -62.5    -118.7
   90    -100.9      -109
   91    -104.5      65.7
   92      53.1      33.4
   93     -95.4    -119.1
   94       155      69.1
   95     -72.8      71.4
   96      26.4    -103.2
   97     121.9     123.8
   98    -101.7      65.9
   99      10.7      14.9
  100     -54.8    -103.5
  101      51.3     117.2
  102     -23.2    -136.9
  103    -103.8     -19.1
  104     -28.6    -121.2
  105     105.2      32.4
  106      75.3     125.2
  107      10.7     -41.7
  108     119.6    -144.6
  109      82.7      24.4
  110       125    -129.8
  111     -85.8      48.8
  112     -52.3     -15.9
  113    -143.4      65.5
  114    -145.1        26
  115     -45.3     -74.7
  116      -134     116.3
  117     101.4       -24
  118     -36.6     -84.1
  119     119.6      66.9
  120     -41.3    -142.7
  121    -101.2     -31.5
  122    -147.1     -54.1
  123    -126.9      32.4
  124     108.6      88.4
  125      72.5     126.1
  126     144.8      65.6
  127     -69.2      91.2
  128    -154.8     -53.7
  129     -74.6      77.4
  130      -139       6.3
  131     -35.5    -109.2
  132     128.2       3.8
  133      20.8     133.6
  134     -34.9      32.6
  135     139.4    -149.4
  136     115.2       -39
  137     -53.1      94.5
  138      -7.8      -4.2
  139    -154.2     -90.7
  140     -28.4       8.7
  141     -87.3     148.9
  142      88.3    -151.1
  143     -52.3      49.3
  144     -70.5    -138.2
  145    -144.3      75.6
  146     -69.1      42.1
  147      13.3      70.7
  148      16.9    -113.1
  149    -146.8     -93.8
  150     -99.7     -94.7
  151      10.3      -121
  152     143.1    -101.9
  153     -59.9     153.7
  154      78.1      18.9
  155     144.2     -29.5
  156     -92.8      47.5
  157     -32.2      26.3
  158     -81.8      42.7
  159     103.6     -97.8
  160      26.5      16.5
  161     133.2     -53.4
  162    -147.6     -97.9
  163     -73.8     120.7
  164        12     -15.5
  165     -32.1    -155.5
  166        92     -92.4
  167       -45    -120.6
  168      -8.4      -100
  169    -105.2    -140.1
  170     100.4     124.5
  171    -112.9      93.7
  172      44.8    -104.1
  173     -19.8     -21.9
  174         2     -60.6
  175        73      73.3
  176    -107.2     -44.4
  177     -10.9    -136.8
  178     133.6      36.2
  179      12.1     140.9
  180    -107.7      91.5
  181     112.3     153.5
  182       4.3     146.2
  183      47.9      23.4
  184    -143.3      89.7
  185     153.4    -154.9
  186     138.1     155.3
  187     -58.4     -30.8
  188     128.5      84.1
  189      18.2    -121.7
  190    -151.7     144.3
  191      14.2    -149.5
  192    -152.3      63.7
  193     -71.3     -31.2
  194     107.9      -4.2
  195     116.1      43.7
  196      -0.5    -106.5
  197      43.7      60.5
  198     138.2     145.4
  199    -100.7     -20.9
  200    -134.7    -150.6
  201     120.1      79.8
  202      42.6       3.2
  203      78.4      47.7
  204     149.6      85.7
  205      -156    -112.3
  206       2.5      48.4
  207     -62.4     -86.1
  208     141.7     -15.3
  209     151.1        61
  210     145.2      13.7
  211     -65.4    -130.1
  212     -25.8     -83.9
  213    -154.9      27.2
  214     135.5     110.8
  215     -80.6    -141.2
  216      75.3      32.8
  217     156.8    -127.2
  218      70.7     -74.1
  219     -79.9     -39.8
  220      29.9    -102.4
  221    -138.5     137.1
  222     150.7      40.1
  223      21.2     124.3
  224         8      -114
  225     -82.7     -92.2
  226      72.5        56
  227     -35.5     104.7
  228      19.8     -56.2
  229     -74.5    -146.2
  230      42.7     -18.6
  231      54.3     -96.6
  232    -156.8       121
  233       3.5      83.2
  234     -64.5       -86
  235    -110.6      97.9
  236     -61.4      40.3
  237    -147.3      95.7
  238      68.2     -75.1
  239     -20.9     154.6
  240    -125.3     142.3
  241      78.2    -120.4
  242     121.6     138.3
  243     -77.9      97.7
  244     -45.4     -31.4
  245      71.7     -57.3
  246      -4.4      61.4
  247     101.9    -150.1
  248      36.6     118.2
  249        42     -39.2
