    0     -28.5      -140
    1       -57      72.7
    2      97.5     -88.9
    3      95.1     123.7
    4      73.6       1.8
    5     -41.2     112.6
    6      -5.6    -100.9
    7     -62.4     137.8
    8      10.8     -73.2
    9       -25      21.8
   10    -138.5       7.6
   11     -76.4      74.7
   12       0.7     124.2
   13    -109.1     -50.8
   14      -6.4     -51.1
   15     -25.7    -105.8
   16    -134.6      49.7
   17      62.8     117.5
   18      76.2    -112.9
   19     -40.1      27.1
   20    -117.3      82.7
   21     -55.8     110.4
   22     -85.7     -54.2
   23      48.3        45
   24     -19.2      -5.8
   25    -138.2      27.9
   26     -86.5    -108.3
   27       -38      45.9
   28      96.9     128.7
   29       8.2     126.6
   30     -95.2     123.1
   31     -38.3     -41.8
   32       5.5     -57.6
   33      32.6      71.3
   34     -21.7      13.8
   35    -108.9    -131.4
   36      29.8     101.9
   37      78.1      55.4
   38     -57.6       100
   39     -50.8     -39.1
   40        95     -35.3
   41    -120.9     123.7
   42     -53.8     -68.8
   43      87.8      68.1
   44     -54.6      30.3
   45    -131.8     -47.3
   46       9.1      44.9
   47       8.1     -35.7
   48     -39.3      55.1
   49        63     -63.8
   50    -132.3    -111.5
   51      38.7     114.3
   52      33.4    -117.5
   53     115.2       -92
   54     -13.9    -135.5
   55      74.7      62.9
   56    -108.4    -115.9
   57     -40.1      16.1
   58      62.9    -113.5
   59     -37.8     100.9
   60      21.1    -114.1
   61     -64.9      79.7
   62     112.2      85.2
   63       -82       6.1
   64      84.6     -37.7
   65      91.6     -29.9
   66    -112.7      -1.1
   67     138.8     -65.2
   68     -85.9        -3
   69       101    -115.8
   70      31.8     -85.9
   71    -119.1        79
   72       -25     -16.7
   73      46.2     -50.3
   74    -117.7     126.2
   75     -40.2     -64.1
   76    -109.4     -62.7
   77     117.8       5.4
   78      99.4      94.6
   79     -72.6        10
   80     104.7     -12.7
   81      64.7     122.4
   82     -22.6      30.4
   83      77.1      25.3
   84     -86.9      74.6
   85      89.9    -108.4
   86    -136.4     121.6
   87     101.8     133.8
   88      42.2     114.1
   89      88.8    -139.2
   90     -51.7     -65.1
   91      41.6      43.6
   92     -94.8      47.6
   93      51.9      47.1
   94     -64.6     -31.8
   95     140.2      16.8
   96     -30.9      74.5
   97     -62.5      34.1
   98    -124.4      -5.2
   99    -110.7      67.5
  100     -72.5     -70.1
  101    -137.2      93.2
  102     -91.5     121.8
  103     -70.8     -97.7
  104      10.3      31.5
  105      47.3     -58.9
  106      38.4      51.2
  107      35.9    -118.9
  108      72.3     -17.4
  109     -53.9     -68.4
  110     -54.2     -73.2
  111       -36    -100.2
  112     128.2      71.5
  113     -43.9    -116.3
  114     -37.1     -52.3
  115      42.7     139.6
  116      75.3     126.3
  117      55.9      61.7
  118     109.2    -124.1
  119     114.7      20.2
  120      16.8     -42.5
  121    -109.9      73.9
  122       8.9       130
  123       -79    -134.1
  124      55.9     -24.5
  125      17.6     -76.6
  126       -28     -46.6
  127      84.4       -71
  128     124.5      10.7
  129      93.3     105.3
  130     135.6     -11.1
  131      26.5    -129.5
  132     130.1       2.5
  133     -96.1     -92.8
  134     -76.7     -47.3
  135    -132.3     109.8
  136     137.6      17.3
  137    -123.7     116.1
  138      77.9    -130.1
  139     107.2     -33.8
  140      22.1    -119.7
  141     -71.2     -21.4
  142     -65.7      75.1
  143     -73.2       -75
  144       3.1       110
  145      48.6     -21.5
  146      87.1     -19.9
  147      43.8     131.6
  148      86.5       -72
  149      60.3      -4.3
  150      16.2     119.4
  151     -42.4     -92.2
  152     104.7       -43
  153      -7.9      -102
  154     -21.5    -140.2
  155      26.2     -17.5
  156      75.2      18.2
  157     -85.6      26.7
  158     114.6        81
  159     -87.8     104.8
  160      29.2     -74.2
  161      94.4    -115.5
  162    -127.7     109.4
  163    -116.6     -65.1
  164    -123.1    -106.3
  165      59.5     102.5
  166       4.1     -94.9
  167    -106.8     111.6
  168    -129.4     -10.2
  169     -49.7      69.7
  170      87.3    -113.2
  171       106     112.2
  172       -24      49.4
  173     -63.7     -29.3
  174        28      86.3
  175      47.7       -46
  176     124.5        46
  177     -51.9    -103.8
  178     -92.5      44.6
  179      48.1      98.8
  180     -63.7      75.2
  181       8.7     -23.6
  182    -135.1      11.1
  183    -102.4     123.2
  184      -110     -49.9
  185      36.4     126.8
  186      14.2      63.6
  187        78     103.1
  188     -12.3     101.3
  189     -34.8     -30.5
  190     114.9     -31.8
  191     -74.1     -81.1
  192    -133.3     115.5
  193    -100.3      59.8
  194     124.2      61.7
  195      62.1    -135.4
  196        74     -12.6
  197      23.9       -96
  198     -62.3      54.6
  199      61.3        23
