    0       -45      43.8
    1     149.3      47.4
    2     -16.3     -14.3
    3    -142.3      -9.4
    4     142.8      61.2
    5    -108.5       -12
    6        60     -35.1
    7     -95.7     -31.7
    8     -38.3        86
    9       105      74.1
   10     116.5    -100.3
   11     119.5      -152
   12     155.9    -113.9
   13     -91.9     103.4
   14     138.8     115.6
   15     -57.2      62.5
   16        11    -146.5
   17     -96.9      -115
   18     -39.7    -145.4
   19      49.4       -94
   20    -102.6       8.8
   21     108.5        70
   22     -70.1      12.3
   23     143.9        44
   24      62.2     150.2
   25     143.7        20
   26      38.8      67.6
   27     -45.9    -152.6
   28        92    -115.6
   29      83.5     -19.9
   30        36     -49.7
   31     -51.9     -17.9
   32      -4.1     119.1
   33      89.6     -24.9
   34    -101.7    -105.3
   35    -120.9     138.1
   36        63      12.7
   37        81    -150.3
   38      23.7    -142.5
   39    -102.7     117.3
   40     128.2     125.9
   41      75.6     138.5
   42    -114.4      82.6
   43     122.2    -145.4
   44     141.3      82.2
   45       -60     -25.5
   46    -115.3     -33.9
   47     -63.2     -47.7
   48     143.4     -97.6
   49     126.1     -66.5
   50      81.7       -36
   51    -148.8    -116.1
   52     -32.7     -43.1
   53     -80.3      21.3
   54     -82.7     -95.9
   55     -71.6    -128.2
   56     -75.7    -149.8
   57     152.4      70.1
   58    -132.9        25
   59     145.6     118.4
   60     -47.8      32.6
   61       -51      15.6
   62     -23.6      -1.1
   63    -151.9     -81.9
   64      65.1     131.9
   65     150.5      56.9
   66      14.9        49
   67      85.5     127.9
   68    -104.3      11.8
   69     140.4      64.7
   70     -13.7      52.3
   71     -16.2     146.4
   72    -142.9      78.8
   73      82.5     136.2
   74      45.3     103.6
   75     109.5     146.9
   76     131.3    -108.6
   77      38.8      81.9
   78     138.8      12.8
   79    -131.7      32.2
   80      14.3     126.2
   81      73.8      59.7
   82       1.9     -51.4
   83       0.1      -150
   84     143.8       2.2
   85      83.6     141.1
   86     142.2      14.5
   87      57.2      91.1
   88      26.9     -42.6
   89     -20.8      75.9
   90      18.3      23.3
   91      29.5     -28.3
   92      30.9     100.4
   93     -89.8    -114.8
   94      51.2     100.6
   95     114.3      22.3
   96     -61.6     122.4
   97    -104.2      21.6
   98    -117.4       -94
   99    -107.6     133.5
  100      68.8      39.2
  101       127       145
  102     148.3     -52.5
  103        73      11.7
  104     -88.1    -133.7
  105      44.8      -6.5
  106    -132.1     -66.4
  107    -147.6     147.7
  108     -38.8     124.1
  109     -14.7     134.9
  110    -122.9    -148.6
  111         2     139.8
  112     110.6        12
  113        21      71.7
  114     -19.2     -23.1
  115      -9.4      56.9
  116     -14.3    -111.5
  117     104.8      20.3
  118       -64     136.5
  119    -113.4       105
  120     -51.8     156.2
  121     -61.8      42.9
  122    -156.2     112.4
  123      87.7    -142.7
  124     -73.6      29.2
  125     142.9       9.4
  126     -52.3     -69.6
  127     142.3    -104.7
  128    -134.1     -27.2
  129        -5      72.4
  130     156.1      29.3
  131     137.5    -145.7
  132     -96.2     -82.1
  133     -59.7      76.3
  134     -79.6      47.2
  135     -83.8     143.4
  136     -50.1    -115.9
  137      39.6     111.2
  138      47.7      17.7
  139       -88      70.1
  140     -59.7    -147.3
  141      34.5       0.8
  142     129.9    -132.5
  143     128.7     -45.2
  144     129.3     152.9
  145      84.2     -64.4
  146     120.2      59.5
  147     107.1       -33
  148     157.8     149.7
  149     -38.5      39.7
  150      52.5     -94.5
  151    -121.1     106.6
  152      56.9     -26.6
  153    -130.3     134.9
  154     116.9    -131.8
  155      12.4      67.1
  156      26.8     -81.8
  157      32.9      18.4
  158     142.7     -47.1
  159     117.9     -72.3
  160     -60.5        39
  161      11.8     -61.6
  162      68.3    -123.6
  163     -79.8      95.7
  164     144.5     -55.4
  165     -46.4       2.5
  166     135.1      65.8
  167      54.7    -134.3
  168     102.8      53.8
  169     -13.8      99.7
  170      -143      10.9
  171      59.3     -31.2
  172     -96.3    -112.4
  173     -32.6      20.9
  174    -126.9       -27
  175    -118.7     -53.1
  176     -74.8        36
  177       -94      91.4
  178      47.8      48.9
  179    -155.7     148.6
  180     -97.4    -102.3
  181     106.3       106
  182       139      62.8
  183      22.4     131.2
  184     -68.7      41.5
  185      87.6      41.1
  186    -126.9     -27.1
  187     -30.5       103
  188     -69.6        25
  189      72.2      16.5
  190       7.6    -157.2
  191        69      36.4
  192      93.1    -112.8
  193     -16.1     138.6
  194     -42.1      10.6
  195        78     -74.8
  196     112.6     -57.7
  197      66.4     -90.8
  198      -113    -124.5
  199     -76.2     -75.1
  200      27.9       139
  201     -38.4      43.6
  202      -9.8      42.1
  203     -92.8      56.9
  204    -155.4     -66.9
  205      38.7      62.6
  206     136.8     -78.4
  207      -1.6     111.7
  208     143.5     -61.6
  209     -80.8    -126.8
  210    -134.3     -44.5
  211     118.7      64.3
  212      -115     -17.7
  213    -114.6     -31.8
  214       1.4     -72.5
  215     147.4      55.9
  216       -60    -112.9
  217     116.3     -74.7
  218    -114.5       2.4
  219     -32.9       -59
  220      25.4     132.8
  221     -37.3       -50
  222      19.2        65
  223    -134.7     -20.2
  224     102.8    -126.4
  225     106.8      86.1
  226       5.9    -110.4
  227      26.5     148.2
  228     -80.1    -108.1
  229        20     -59.6
  230       8.7     138.6
  231      64.7     -39.1
  232    -143.3      61.2
  233      -115    -130.5
  234      35.7      82.3
  235    -141.1      73.3
  236     -85.8    -148.5
  237      29.4     151.1
  238    -102.8     -58.9
  239     112.8       -29
  240       7.1     -20.7
  241      82.4      37.1
  242     149.5     -52.2
  243     108.7     -33.6
  244     -20.4     147.5
  245      67.4    -151.1
  246     -80.9       -75
  247       -74     -84.1
  248     -22.7     142.9
  249     -46.3       109
