    0      75.6    -127.3
    1      -1.6      84.5
    2     125.5     100.9
    3     135.2      87.5
    4     112.9     105.6
    5      69.1      50.3
    6     131.5     -94.1
    7     110.5      52.9
    8    -130.1       -54
    9     -23.9     -86.7
   10       7.3     -97.7
   11      -137      90.9
   12     103.5     116.5
   13     134.8     -16.3
   14      74.6    -120.5
   15      16.6      45.2
   16      84.7     -90.1
   17      67.8     -98.6
   18      22.5      -132
   19      84.7      23.9
   20    -121.9     -59.7
   21      23.2     -14.8
   22     -64.7    -124.4
   23     106.1       4.1
   24     118.1      -6.9
   25      89.9     -61.3
   26     -54.2      82.9
   27      60.4    -105.8
   28     128.4    -126.9
   29     -87.7       -12
   30     -77.1      86.3
   31    -118.2      55.4
   32      25.1      -137
   33     132.5       -60
   34      41.7       9.2
   35      73.1      24.7
   36      34.8     -50.5
   37       -81     108.7
   38     -21.9      98.4
   39      98.4     -47.3
   40     130.1        71
   41    -110.4      -120
   42     112.6     -68.6
   43       -87     -38.7
   44     -18.3     -22.4
   45      -6.9     118.6
   46     -50.1      56.9
   47     118.9     -40.5
   48        75     113.7
   49     -36.3       111
   50     -42.9    -136.7
   51    -100.7       -82
   52      40.8     138.3
   53      93.9        43
   54      53.6     135.6
   55      64.6      37.6
   56     123.7    -121.7
   57      67.5     -12.5
   58       110    -134.2
   59       -71     -33.9
   60    -134.1    -107.1
   61      84.4     -85.8
   62     -81.3       8.9
   63    -136.5    -116.9
   64       -72     -40.3
   65      46.6    -124.1
   66      44.9      81.8
   67     -65.2      69.6
   68      -2.9      -8.2
   69     -92.8      88.9
   70    -106.2      15.1
   71      -9.4      89.2
   72     114.2       3.9
   73      55.4      61.7
   74      42.3     -74.6
   75      61.4     120.2
   76      62.9     -27.8
   77      43.4    -126.3
   78      94.5      63.2
   79       -48     -74.5
   80     -78.9    -128.9
   81    -112.2     -61.4
   82     -44.2      91.4
   83      -4.1     -27.1
   84      84.3    -114.8
   85        -4      97.8
   86      15.4     -49.6
   87    -128.7     -88.5
   88     -85.8     -47.2
   89      -0.9        18
   90     -47.6      52.4
   91       -10      44.8
   92      87.7      48.8
   93      -123      46.9
   94     116.8     -38.6
   95     101.7    -122.5
   96     -93.7      79.6
   97      -9.8     -10.3
   98     124.7        68
   99       -92     -59.2
  100      -1.9     -44.5
  101        19      35.7
  102      26.9      57.6
  103      -7.6       128
  104     -20.6     119.9
  105     -87.9    -113.9
  106     103.2      92.1
  107     -32.7    -101.5
  108      98.6      -0.3
  109        24      33.8
  110     127.7     -87.7
  111      38.7      67.3
  112      97.1      15.4
  113    -121.9     116.3
  114      78.7      90.3
  115      68.9     -22.3
  116      77.6     102.2
  117      67.1     -17.1
  118      39.5      74.1
  119      84.3     -74.1
  120        -1      98.3
  121     -42.1      92.4
  122     132.3      74.8
  123     -27.1      95.6
  124      51.6      28.3
  125       -55     113.4
  126     -74.8      27.9
  127      61.8     -49.2
  128     -59.5      -1.4
  129      71.9       -44
  130     129.5     140.2
  131      39.5      61.8
  132    -104.8     -13.4
  133      98.5     134.5
  134     102.4     -77.7
  135    -113.6    -124.1
  136      23.5      89.1
  137    -114.4      49.9
  138    -102.9       -66
  139      -5.2    -104.1
  140     -18.4     100.1
  141      96.4     114.9
  142      91.9        41
  143     -85.4      85.6
  144      90.4     111.1
  145     113.6       107
  146     -37.1     102.7
  147     -46.6    -137.5
  148     -51.5      -122
  149     -60.3     -45.9
  150     -78.5      -8.3
  151      -7.5     -41.9
  152     -99.4      55.4
  153    -123.8       132
  154      39.9      70.2
  155      30.2     -57.3
  156       2.9     -57.6
  157     -43.7     -17.9
  158      20.7    -130.4
  159     -86.2    -125.4
  160    -129.6     -84.7
  161     -22.8    -127.9
  162      48.9      47.8
  163     -46.9    -130.9
  164     -31.4      89.9
  165     130.7      -134
  166     -13.4      10.8
  167    -122.2     126.5
  168     121.4       4.5
  169     -21.5     -19.2
  170      12.8     -59.1
  171      84.9       7.2
  172      27.2    -109.3
  173      -1.2      55.6
  174    -111.4    -101.1
  175     102.5     104.5
  176      93.1    -136.5
  177      68.3      78.7
  178     -49.8     -51.4
  179     -92.1     -19.6
  180      47.9     133.8
  181     -48.4     126.8
  182    -119.9    -106.8
  183    -128.1      26.2
  184     128.5     -12.4
  185     109.1       -83
  186      52.5      34.7
  187    -108.4     115.6
  188      45.6      42.6
  189       1.8     -55.6
  190      93.2       135
  191     -31.1     125.3
  192     -41.3    -112.2
  193      96.5     -23.4
  194      13.5     -36.8
  195     -22.3      68.4
  196      75.8     129.4
  197     -40.1     -20.2
  198     -31.4      19.6
  199      31.3     122.4
