    0     133.3      75.5
    1      80.8     -32.6
    2     156.4     164.7
    3       -48     170.2
    4      90.8     138.6
    5     -59.9     -14.2
    6      10.2     -63.4
    7     -81.8    -146.2
    8     -24.6       -93
    9    -154.8    -170.6
   10    -148.1    -159.9
   11     -60.9     -27.9
   12     -82.4     130.8
   13       1.8       164
   14      64.7    -110.5
   15     -59.8     149.2
   16      73.6     143.2
   17    -107.7      61.5
   18     146.7      29.2
   19     -72.2       157
   20      26.1       2.7
   21     153.8      18.5
   22      37.1     -38.2
   23     157.5     100.5
   24     -41.1      83.4
   25      -0.1         0
   26     101.3    -115.3
   27     -37.5       127
   28     144.7    -155.7
   29    -122.9     122.6
   30       121      59.3
   31      85.1       6.2
   32     130.3     -72.5
   33      11.5     168.7
   34      58.3     -96.5
   35    -138.9     -36.5
   36      40.5     -23.8
   37      37.3       9.8
   38     170.1      69.6
   39     -15.6       0.7
   40    -150.2     127.5
   41      52.3    -100.2
   42     128.5    -106.3
   43     123.5     124.1
   44      81.1     -45.3
   45     -13.2     -53.4
   46     -85.7     -94.7
   47      42.2      97.3
   48       126      46.8
   49      53.6     145.6
   50      61.2        56
   51      71.5     102.2
   52      67.5        -1
   53    -142.7     -61.9
   54    -131.8    -106.7
   55    -105.9    -114.3
   56     124.9      79.2
   57       -31      61.4
   58     152.3     -10.7
   59     141.3    -146.1
   60     141.6      -3.4
   61      83.9     117.2
   62     163.2     125.8
   63    -120.4     -40.9
   64     153.8     -37.5
   65      -9.3     162.7
   66      76.7     117.2
   67        24    -158.2
   68     -35.1    -107.8
   69    -108.6      95.5
   70      71.8       158
   71    -126.4    -118.7
   72     147.4    -140.5
   73      73.5     -53.2
   74     142.6       2.1
   75     -80.9      39.6
   76       -27      77.4
   77     -67.7      45.1
   78     -46.1      88.9
   79    -150.9     -39.6
   80    -115.2      55.3
   81     151.5      11.9
   82     123.6     117.6
   83      59.6     -24.1
   84      -139      49.7
   85      81.7      49.5
   86      88.8       -87
   87      93.4     -92.2
   88    -103.2     -37.5
   89       7.9        24
   90     166.9     162.5
   91    -110.2       161
   92    -161.3    -160.2
   93      -1.2     146.9
   94    -146.2       -91
   95      40.3     -80.9
   96     -47.1    -105.3
   97    -162.3     144.7
   98     -28.3     141.6
   99      11.3      54.4
  100     154.1      54.8
  101      35.5      27.4
  102      16.1      -8.4
  103    -129.8        26
  104     -31.1      71.4
  105     117.5      36.1
  106      43.6      63.2
  107     -21.9    -161.8
  108     -73.8    -154.6
  109      68.7     114.4
  110    -164.5     100.3
  111      34.6     139.2
  112    -122.2     -30.6
  113      91.9     -57.9
  114    -165.5       -18
  115    -104.3       114
  116       129      63.5
  117      62.6    -122.3
  118      48.2    -102.8
  119      88.3      91.6
  120    -154.3      96.2
  121        66        40
  122      34.9      42.9
  123     -53.5    -129.7
  124       1.7      -155
  125     -61.4       -47
  126     -30.7    -152.6
  127     -56.7      27.6
  128       142     -42.9
  129    -108.7     136.9
  130      22.4    -168.5
  131     -86.8     -14.2
  132      32.9     113.2
  133     137.9     108.8
  134     130.8    -120.8
  135      85.8     100.4
  136     -28.3    -171.6
  137    -125.8        60
  138     153.9     148.1
  139      87.5     158.6
  140     101.2     162.3
  141     107.5     -18.1
  142      76.2     118.7
  143      61.5     169.5
  144     113.8     108.7
  145       -46      45.2
  146     -94.5     -63.4
  147     102.1     -12.6
  148        37     122.2
  149     -99.3     158.5
  150     -39.3    -104.8
  151      76.7    -156.8
  152      23.5     -21.8
  153     -80.4      88.3
  154     165.2     133.8
  155    -160.9      53.1
  156    -160.8     -35.8
  157      47.4     141.6
  158      75.1    -139.3
  159      -170     -93.3
  160     124.3      -136
  161       -29     -11.3
  162     -11.1     -93.6
  163      -7.6    -114.8
  164    -108.8    -110.2
  165      39.7     124.2
  166      24.4     -43.3
  167     112.9       -57
  168     -51.7      99.1
  169    -101.6      84.3
  170     -69.3     154.7
  171    -138.6      82.3
  172     138.8      28.5
  173       -67      -5.5
  174     -18.1       150
  175     -88.4     105.9
  176      82.6     -72.1
  177     -10.1     -89.1
  178    -162.8      95.6
  179       -10       -68
  180     -38.7     134.5
  181    -130.2      70.9
  182    -132.6     129.4
  183      83.8     125.5
  184     -36.7     -28.5
  185    -136.1     -24.8
  186     101.7      73.8
  187     -39.8    -122.7
  188     117.1     -23.6
  189       -50       108
  190     -90.2      41.4
  191     114.6      43.8
  192     168.2    -151.5
  193      69.3      68.5
  194     150.3    -124.9
  195      -7.2    -170.9
  196    -154.1      71.9
  197     101.1      31.1
  198     170.8      -159
  199      62.9     -88.9
  200    -135.7     -51.2
  201      -120       1.5
  202      42.5     153.9
  203     125.1     -98.1
  204    -146.6       1.7
  205     -51.3     -20.3
  206      69.5      27.5
  207      85.5    -169.9
  208     138.9      92.7
  209     -67.4      -6.1
  210      -4.7        54
  211      82.1     110.6
  212     105.4    -163.7
  213      70.4       4.8
  214     -17.3     -42.8
  215     -38.5      -1.4
  216      63.2     -80.2
  217      21.3      25.5
  218     -92.9      20.2
  219    -162.5      68.2
  220      43.8    -166.4
  221     136.4     112.3
  222      76.8     -36.9
  223       0.4        61
  224      22.9     -29.3
  225       5.9    -120.7
  226     -79.4     111.4
  227    -168.8      66.8
  228    -159.1     135.6
  229     163.4     -40.2
  230    -167.4      13.8
  231    -125.5    -156.6
  232    -141.7        -0
  233      27.6    -122.9
  234     -53.4      43.7
  235     146.7        83
  236     -75.9     120.2
  237      39.1     -61.7
  238      -8.9     103.1
  239    -126.9      89.1
  240     118.6      57.6
  241      34.1    -115.8
  242    -119.8     -73.8
  243      35.5       167
  244     153.7    -171.7
  245      84.4    -168.8
  246       1.6     -53.2
  247      80.8      79.5
  248    -143.9    -159.9
  249      -4.8      45.5
  250     163.4     -42.4
  251    -136.4     139.8
  252        39       6.8
  253    -114.4    -104.3
  254     -31.3      64.3
  255     -98.5      99.6
  256     -43.3     117.7
  257     119.2     135.7
  258       -75     123.8
  259     -56.3     -17.3
  260      -6.8      76.3
  261    -105.3    -132.2
  262    -170.3        92
  263         5      97.3
  264    -104.3       9.9
  265      31.3     -50.4
  266     -34.7    -104.9
  267      59.2    -119.6
  268     165.1     -96.3
  269     -84.4      43.9
  270     -82.5    -136.1
  271     121.1      72.4
  272      30.4     142.3
  273      27.6      36.5
  274    -142.4      -0.6
  275      26.7     -81.9
  276     -36.5    -153.8
  277      12.3     -60.1
  278     138.4     147.5
  279     -52.3       120
  280      86.2     -77.8
  281     -92.2        14
  282    -104.7      43.5
  283     -87.9     125.3
  284       3.5     102.2
  285      33.5      64.3
  286    -157.3     -81.2
  287      59.3     127.8
  288      64.9       3.8
  289    -117.1      -5.1
  290     -76.4     -59.8
  291       -99     172.1
  292     -99.3      62.2
  293    -171.8    -114.5
  294     116.7    -134.6
  295      47.1     165.2
  296     115.1       -91
  297      99.7     -61.4
  298       -98       -48
  299     168.8     105.5
