    0     -43.1    -113.6
    1     119.5       147
    2    -166.5     -56.5
    3     -72.4    -145.2
    4      -127    -144.5
    5     -69.1      98.4
    6     -30.4     -66.5
    7      78.4     -60.9
    8     157.8       -59
    9     -78.4      -128
   10     -52.5     -79.7
   11       -16       8.8
   12        12    -156.2
   13      82.3     140.6
   14       -33     -82.5
   15    -156.7     133.7
   16      -4.9      76.9
   17     -86.6     -23.1
   18        54     156.7
   19     108.9      11.6
   20       -77     -33.6
   21     -76.1       -31
   22      56.6      61.7
   23      66.6     115.6
   24     -76.1        21
   25      59.7      15.9
   26      30.8    -138.7
   27     -81.5     -56.2
   28     153.2      19.4
   29     -95.2     107.1
   30     -23.7      -4.5
   31     140.6     -54.5
   32    -140.7      82.1
   33     -36.2     -64.5
   34     -37.6      46.7
   35    -153.7    -142.8
   36     -46.9    -116.4
   37    -125.6     108.7
   38     -48.9     -37.2
   39      36.7      22.9
   40      84.5     156.3
   41     121.8     118.4
   42       9.1     112.4
   43     -25.3     163.4
   44     -85.5     -86.6
   45      -8.7     -15.2
   46    -128.4     172.9
   47    -170.3      90.8
   48      83.7     115.7
   49      62.4      42.2
   50     -67.7     -36.1
   51     -94.1     -52.2
   52       111     -57.7
   53       -99     -98.3
   54    -143.9     151.9
   55       -86     -28.6
   56     141.3    -147.7
   57       -52      53.2
   58       1.8      56.2
   59      15.7     126.3
   60     -31.9      17.9
   61      -9.7    -122.8
   62     120.9     169.9
   63      -164     -44.8
   64    -170.7      12.8
   65        98      24.9
   66    -171.1      52.8
   67     -59.9      28.8
   68    -136.7      99.4
   69    -126.3     170.6
   70     158.6     -99.5
   71    -105.8     152.3
   72     -47.2       -34
   73     167.9      94.1
   74     -33.9     -92.5
   75    -170.9    -135.7
   76     -41.1     100.6
   77      -6.6     -58.3
   78      -7.8    -152.5
   79     -28.5    -156.4
   80      -1.7     -77.9
   81      56.9      11.5
   82      47.4     -93.2
   83    -128.4      72.5
   84      71.4     -66.7
   85     105.8      62.1
   86      45.5       4.8
   87      97.4     -53.9
   88      80.2     -62.1
   89     124.5      -123
   90      42.9        22
   91     164.9     -17.5
   92    -111.3    -103.4
   93    -156.4      44.1
   94     -24.8    -100.9
   95     -27.7     -57.9
   96     119.1     -39.9
   97      22.6    -162.4
   98     128.6     -48.3
   99    -106.6     -67.6
  100    -122.5      27.9
  101       -30     160.6
  102     -74.7      17.5
  103    -124.1      -1.7
  104      57.8    -131.7
  105     -50.1     129.8
  106    -134.9    -142.3
  107       -33     -71.4
  108     116.1     146.6
  109    -172.9     103.9
  110      51.3     120.6
  111      -155     -28.6
  112      77.5    -135.5
  113      -170      85.3
  114     143.3      61.8
  115     122.9        35
  116     164.4    -103.2
  117     -25.9        67
  118      44.4     -22.1
  119    -109.6     143.3
  120     122.4     170.6
  121    -126.3     -95.6
  122     -58.8      51.3
  123    -165.8      69.9
  124     -27.6      -171
  125     -18.5      94.9
  126      39.8     102.7
  127    -133.6    -120.2
  128     115.7      32.9
  129     103.3       6.6
  130      -0.2     -93.9
  131     -90.2      -4.2
  132      96.2      59.1
  133      31.5       128
  134       141      65.8
  135      33.8      96.7
  136    -170.2    -157.8
  137    -123.3      36.8
  138     -74.4      -3.9
  139       -57     -37.7
  140      -162     -34.4
  141      95.8      44.9
  142     -56.1     -77.5
  143    -108.4    -157.7
  144     140.9     138.2
  145    -166.2     -54.4
  146     136.6     -13.8
  147     -88.1       3.4
  148    -114.8     -36.7
  149     152.6      52.3
  150     137.2     -90.3
  151     123.5     147.2
  152     130.6     -76.3
  153      36.9      33.1
  154       2.7     -82.2
  155      48.8        81
  156     103.9     161.9
  157      56.1      35.8
  158     -49.5     143.6
  159      46.1     -84.9
  160        71     167.1
  161    -159.5     -45.7
  162     137.9       -94
  163      19.5     127.7
  164     101.1      63.7
  165      99.4       -51
  166     138.8     -29.5
  167     -98.9     118.4
  168     -89.7      39.7
  169    -162.1     145.6
  170    -151.5    -163.2
  171    -169.2      90.3
  172     133.7      -9.2
  173      -154    -142.6
  174      84.4      86.3
  175      33.6      35.4
  176      -165      73.5
  177       1.4     138.9
  178     117.5     102.3
  179      47.2     -26.8
  180       -60      90.1
  181        77     -19.1
  182      89.5     157.8
  183      70.4      61.2
  184     140.9     127.9
  185    -101.5     -11.7
  186      14.7       -86
  187     -69.1    -118.5
  188      -5.7      30.9
  189    -107.7      45.7
  190    -137.9     -96.5
  191    -171.9      21.5
  192      64.4     125.3
  193       -54     -32.3
  194      27.2     114.2
  195        80      63.9
  196      -6.9      85.8
  197      41.9      19.1
  198     116.7    -170.5
  199    -124.4     -92.7
  200      75.4      93.9
  201    -103.4     -78.4
  202    -146.8       105
  203    -122.9     -81.2
  204     109.1     136.3
  205      27.2     152.8
  206        22    -111.6
  207      20.1     -81.2
  208      17.5    -134.4
  209      92.9         1
  210       2.6     -32.4
  211       127     112.6
  212       170      61.7
  213        48     -11.5
  214    -160.3    -131.6
  215    -130.6     161.8
  216      15.8     156.7
  217     -46.3      13.8
  218     -62.7     159.7
  219     159.7    -144.3
  220    -125.7     128.7
  221    -165.9     130.8
  222     102.4       129
  223      86.3      -0.3
  224       1.6    -156.6
  225     -79.7     161.1
  226      17.1    -171.4
  227     121.8      59.3
  228      45.6      -3.7
  229     -99.7    -131.5
  230      99.7     -86.2
  231    -163.4     172.4
  232     -71.4     156.9
  233     -57.5      41.4
  234     -13.6     -31.3
  235     155.4     -81.3
  236      81.1     143.4
  237      31.9     -14.2
  238     171.1     161.9
  239     119.6      71.7
  240     -11.2      -117
  241      41.4      78.5
  242    -118.1       4.3
  243     -77.9      70.8
  244    -102.6    -164.4
  245    -152.7      38.1
  246    -154.5      91.3
  247    -167.8    -139.7
  248     137.3     -97.3
  249      -167    -165.3
  250     -96.5     -90.7
  251    -142.8    -130.8
  252     147.2       -63
  253      52.5     124.2
  254       134      10.1
  255     137.4     169.4
  256     -38.1     122.3
  257       129     129.7
  258     -61.9     -95.9
  259       2.1    -150.6
  260      13.5    -160.9
  261    -111.2    -107.5
  262     -60.2     -24.6
  263    -164.1      65.5
  264     -61.9    -138.2
  265      38.6     -29.7
  266     121.7     153.1
  267    -125.6        42
  268    -152.4     -73.9
  269     117.5       -32
  270      80.7    -162.9
  271      81.2    -137.7
  272     -85.4     -25.2
  273       -47      53.3
  274      18.3     115.9
  275      68.3      16.2
  276       1.3    -111.9
  277     121.8     -80.7
  278      45.2     -27.1
  279      97.4     125.2
  280      22.2     123.4
  281      31.7      40.8
  282    -126.4     -25.5
  283      48.7     -39.4
  284       5.6     148.5
  285    -146.6      31.9
  286     -61.3     -52.7
  287     163.2     -14.9
  288    -148.6    -140.4
  289      72.7     -12.2
  290     139.4     -15.6
  291      97.5      35.2
  292     170.5    -168.8
  293      48.6     -32.4
  294         8     -60.8
  295      98.7     -50.5
  296      53.3      52.4
  297      74.5      38.9
  298     -40.2     172.3
  299     145.9      67.8
