    0     -39.4      84.3
    1      19.4       102
    2      19.1     114.3
    3     132.6     153.5
    4    -158.7      36.3
    5      89.9    -168.7
    6     117.8     131.5
    7     120.5    -100.3
    8     -88.6       9.1
    9     105.1       -79
   10       -20       -74
   11     157.2    -156.7
   12     131.7     -57.5
   13      85.3     100.3
   14       7.9    -134.8
   15     -46.8       146
   16      61.2     -11.7
   17       -24      20.7
   18      15.8      48.2
   19    -106.9      27.8
   20    -120.7    -136.5
   21    -140.1       3.4
   22     101.5       113
   23    -113.7    -167.2
   24      68.6     149.2
   25    -133.9     -73.3
   26    -168.9     -48.9
   27     -10.7    -147.7
   28     102.4        -1
   29     123.5        60
   30    -110.2     -53.2
   31      34.1      55.9
   32     -56.1     -90.9
   33        64      38.1
   34       -31      48.8
   35      -7.6      38.5
   36    -142.3    -140.4
   37    -153.9     127.5
   38       157      95.9
   39      35.5    -123.8
   40     -80.2      94.2
   41      91.2     -58.8
   42     -48.5      12.8
   43     -52.7     159.9
   44     -83.9      40.8
   45     -66.5     137.2
   46      82.1    -123.4
   47     -37.3     169.4
   48     -24.2    -130.9
   49     -43.4    -163.5
   50    -120.4    -146.8
   51     -78.9      69.3
   52    -134.6    -156.1
   53     -15.9     137.4
   54    -122.6       3.7
   55    -154.6    -137.5
   56      54.1    -106.3
   57      26.6    -109.9
   58     -41.8     -38.1
   59    -126.5     -58.3
   60      56.3      87.5
   61    -111.2      -9.8
   62     -33.3      -135
   63    -113.3     129.7
   64     -70.1     -55.3
   65    -142.8     -69.1
   66      19.2     117.7
   67      -127     -28.2
   68      88.7      36.4
   69      47.3     107.4
   70     163.8     -12.7
   71       -12     -62.4
   72     119.7        -3
   73     140.4    -160.2
   74      84.8    -123.9
   75     -32.9      70.9
   76      65.9      -133
   77    -145.4     109.5
   78    -111.9       3.3
   79     -35.3    -106.1
   80      21.9     -79.4
   81     152.5       -61
   82    -108.7      -4.3
   83      52.7     -89.2
   84     119.1      18.7
   85      -7.1     -93.3
   86     111.8      78.6
   87     108.5    -130.8
   88    -137.6    -130.2
   89      46.4      -2.8
   90     143.4      60.3
   91        92       4.3
   92     -68.7      -147
   93    -119.9      88.5
   94       115     -82.3
   95      19.9      78.1
   96    -126.7     -18.9
   97      29.5     -35.1
   98     -37.9     -94.4
   99     -16.7      18.9
  100      -8.3     118.7
  101     -38.2    -109.3
  102     125.2    -155.5
  103    -137.5      84.5
  104       163      69.6
  105    -111.7      17.6
  106    -130.1       8.5
  107     122.9    -141.9
  108      81.9    -118.7
  109      -148         7
  110     148.4     153.8
  111    -113.3    -117.5
  112    -105.4        19
  113    -103.4     -92.7
  114     -70.1     146.8
  115    -108.8      50.2
  116    -161.6      26.3
  117     -67.1    -136.4
  118    -159.7     116.9
  119     -45.4     -59.8
  120     -76.1     170.1
  121      -6.3      43.2
  122       -37     133.7
  123     -54.7      62.2
  124       6.6      -158
  125    -158.8      85.3
  126     105.7     100.1
  127     101.9    -141.5
  128     -98.2     -19.1
  129       0.4     151.5
  130     109.4    -138.2
  131      13.1      72.4
  132      -111    -168.6
  133      68.7       116
  134    -144.6    -121.2
  135      62.3     144.6
  136    -125.3     145.1
  137    -164.2      10.4
  138       7.4      37.8
  139     147.6     -23.9
  140     -16.4        25
  141     102.1      -7.6
  142      28.4      64.1
  143    -170.6    -166.9
  144     154.2    -132.3
  145        79    -160.7
  146      47.5     150.2
  147     -95.1     120.7
  148     124.1      24.1
  149      23.6      41.2
  150       1.6      70.4
  151    -126.3     -10.4
  152     150.2      22.2
  153     109.8      -3.6
  154    -141.7      -104
  155       -55     -35.1
  156      42.3      82.3
  157      35.1    -116.1
  158    -117.4    -111.5
  159     -26.1     -52.8
  160     -29.7      80.1
  161      54.5     -16.7
  162     -92.5     -83.4
  163     171.2    -148.1
  164       -70     110.5
  165       -18    -135.1
  166      33.7     128.8
  167     125.9     118.6
  168     -55.3    -116.5
  169     -35.4    -127.2
  170     -12.8     110.5
  171     -52.7      14.9
  172     -36.4      66.1
  173     -83.8      55.8
  174     -95.6     -11.1
  175      66.7     -37.2
  176     149.9        35
  177      32.7       6.2
  178       123      22.9
  179      43.3     -71.7
  180      -172      -3.3
  181     -34.2     -46.5
  182     -22.7      64.3
  183    -163.3     104.6
  184     -66.4    -135.3
  185       117        -2
  186      97.7     -73.5
  187      83.6      80.5
  188     -28.5      82.6
  189    -140.4     -93.3
  190     -91.4     -29.9
  191      -3.9     -44.3
  192    -139.7    -104.6
  193     -42.7     163.7
  194      13.9    -172.4
  195     147.4     -58.2
  196        91     -11.1
  197      -165     121.9
  198     128.1       114
  199     110.8    -165.9
  200    -148.1     155.9
  201      83.5    -167.3
  202       164    -145.7
  203     -52.8      83.3
  204      41.5       -54
  205     162.8      13.9
  206     -20.1       9.9
  207       7.1     -30.7
  208        96    -121.7
  209     -44.4     159.8
  210    -137.5     -45.3
  211      82.6       144
  212      51.1     101.5
  213     -20.9     -20.3
  214      14.2      50.5
  215     -12.4    -146.6
  216    -122.3     -36.9
  217     -89.6      16.3
  218      84.4     -60.7
  219    -165.3     -87.5
  220     -99.8    -129.3
  221     -76.4      57.2
  222     127.7     167.2
  223       9.6      14.5
  224    -127.3     -91.3
  225      -6.8    -160.8
  226    -124.7      -129
  227     150.6      61.8
  228    -170.5      56.6
  229     -66.3     -31.2
  230     125.9      -127
  231     -98.7       -16
  232     -59.5     -69.5
  233    -171.9     -55.3
  234      27.6     107.9
  235      53.2       117
  236      63.8     124.9
  237     153.2    -143.3
  238     -60.6      35.9
  239     -75.7      69.7
  240      33.6     -34.1
  241    -127.1    -120.9
  242    -162.9     -37.4
  243       -28    -118.1
  244        -9     -23.1
  245     110.1     -20.1
  246    -160.1     154.1
  247     -48.8      15.1
  248        67      64.1
  249     -95.5    -153.6
  250      86.7     167.6
  251    -117.2    -170.9
  252     107.7      -6.9
  253       -29      65.5
  254     -35.2     129.1
  255      28.6      80.9
  256     135.1      82.9
  257     -72.3      59.3
  258     149.1     150.4
  259    -129.6     104.4
  260     159.7      38.6
  261      65.3      44.1
  262    -158.9     -36.8
  263       -99      49.7
  264      35.3      78.2
  265      45.3      90.6
  266     -67.1     152.9
  267      -1.5    -121.2
  268      50.3    -148.1
  269      63.8      92.9
  270     -13.9     148.7
  271       -81     -38.3
  272    -169.1       1.1
  273     -17.6     -45.8
  274      98.8    -109.5
  275      -166     159.1
  276      56.8     126.4
  277    -113.6     -12.8
  278        47       -19
  279    -128.4       158
  280      66.9      87.1
  281      -5.7     148.7
  282    -146.2     -20.6
  283      47.7      25.6
  284       7.9     131.7
  285     -81.4    -164.9
  286      55.7        24
  287    -105.5     -60.6
  288     -89.7    -138.3
  289      45.4     -29.5
  290     -64.1       -96
  291    -138.2     135.1
  292    -153.1    -167.2
  293      -156     121.4
  294       -47      77.2
  295      -5.7        32
  296     134.4     -86.8
  297      24.9     -20.9
  298      61.5     135.9
  299        35      -3.5
