    0       -31      -4.6
    1       143     123.8
    2     -76.2     161.5
    3     -37.6    -130.2
    4    -167.6     -85.6
    5      91.4    -112.6
    6      93.8    -168.1
    7    -124.4     114.7
    8    -124.1      99.5
    9     -19.8     -93.5
   10       2.3      26.3
   11      80.5      -8.5
   12    -108.5    -170.3
   13     124.7     -65.7
   14      23.7      27.7
   15     123.6      24.2
   16     124.5    -164.2
   17     160.9      74.2
   18      43.2     -60.8
   19      75.7    -100.8
   20      90.5     -33.7
   21     166.4    -158.6
   22    -147.8    -158.6
   23     -55.8    -117.8
   24    -141.6    -162.5
   25      93.5    -139.3
   26     -66.1    -140.4
   27     166.3      30.7
   28      -7.7      45.7
   29     -61.3     -23.2
   30    -130.4      99.4
   31      69.6     -31.8
   32     152.2     135.9
   33     -45.4       0.8
   34     -97.2     107.8
   35    -164.2       -87
   36     160.9     -99.4
   37    -132.5     -17.8
   38     123.7     -66.1
   39      86.2    -153.4
   40      75.2    -142.8
   41    -132.2       5.2
   42        44      22.8
   43     125.5     -63.3
   44     -44.8    -135.3
   45     -85.7    -145.9
   46       -56     -59.7
   47      35.7     138.9
   48      22.1      34.1
   49     119.2     -65.6
   50    -158.5      82.9
   51      44.6      14.1
   52     167.7     123.6
   53     138.6       -13
   54    -112.2       144
   55     -61.6     145.9
   56      -147    -156.9
   57      -9.8      95.4
   58       115    -128.1
   59     -99.5     -30.8
   60     126.2      66.1
   61    -123.8    -167.3
   62    -119.5      44.3
   63      10.2     -33.9
   64     147.6     107.1
   65      49.5        47
   66     122.7    -146.9
   67     130.9     -73.4
   68     -13.6      57.6
   69      31.3      19.4
   70       124      41.2
   71    -159.5    -152.4
   72      -0.3    -120.3
   73     -52.5      27.4
   74    -146.8        28
   75     136.3       9.2
   76     -89.9      99.2
   77    -167.1     -26.7
   78     -71.2      94.7
   79      -7.7      -115
   80       1.3     -52.6
   81      16.4     -41.1
   82    -104.1       -20
   83    -119.9      34.7
   84     -64.4    -129.1
   85       165      37.5
   86       6.2     114.3
   87     142.9      62.7
   88      36.7     105.6
   89     102.4    -162.4
   90     -72.7     -44.6
   91     104.8     -94.5
   92    -152.5     159.2
   93     -23.1     131.5
   94     -83.1       1.7
   95      -8.3     -47.6
   96    -154.9    -106.4
   97     128.3     122.7
   98     -34.9    -131.5
   99     126.5      -2.2
  100      85.4       132
  101     -40.9     140.1
  102      16.8      40.9
  103     168.9       140
  104     -71.5      21.7
  105     -36.7      49.4
  106    -107.5      37.2
  107     126.9     166.4
  108    -116.1     149.8
  109      -7.8     -42.8
  110     -56.6     -97.4
  111      29.2    -153.1
  112      38.3      -7.5
  113     -14.4      94.1
  114      20.5    -157.8
  115     -14.6     134.8
  116     -88.9      79.2
  117      54.5    -125.5
  118    -129.7      71.9
  119     -55.4      87.5
  120      83.1    -125.5
  121     -85.5     -57.7
  122     -79.8    -154.1
  123      -158    -116.3
  124      62.4      28.3
  125      92.8     -66.8
  126        31     161.6
  127     136.2     -93.7
  128      -0.5      -1.2
  129      64.6       -85
  130      22.7       106
  131     -33.3      40.5
  132      23.4      43.3
  133    -107.8     -33.3
  134    -102.5      -6.9
  135    -147.1      -119
  136     -32.3     -35.1
  137    -167.9     -25.4
  138       106    -127.3
  139     -61.5    -153.3
  140    -168.6     152.4
  141     -15.5      -9.6
  142     126.6     -13.9
  143       9.2      90.2
  144     -63.5      67.4
  145     -12.9     113.8
  146    -143.4      53.9
  147    -100.8       -31
  148      92.2      62.7
  149     134.8    -101.1
  150       7.8     163.5
  151     -58.3       156
  152    -161.1     -44.2
  153     121.9      53.1
  154       124     144.2
  155      77.7     120.6
  156     120.3    -104.4
  157       -97    -145.3
  158     101.7    -151.3
  159      47.2     -20.3
  160     154.6      61.2
  161       -95     -24.2
  162      23.2      -1.3
  163     -31.5     142.1
  164    -115.1    -115.9
  165    -101.2     -13.8
  166      34.4     131.1
  167     -76.7     131.1
  168      50.4       -90
  169     -10.3    -120.7
  170     -81.4    -124.2
  171     -68.5      45.6
  172    -119.8      69.8
  173     -78.5      84.4
  174      97.8     102.9
  175     -31.8     161.5
  176      18.3    -102.9
  177     153.9     -35.4
  178     -89.8     134.5
  179      24.8      57.1
  180     -42.1       0.3
  181    -131.5      -7.8
  182      81.4      16.8
  183    -132.8        31
  184      15.6     -55.3
  185    -137.1     -12.9
  186      50.3      -106
  187    -125.3     -31.9
  188    -110.7     156.6
  189     -48.6      -5.8
  190      -165     -54.9
  191    -153.1     151.8
  192      27.4    -107.8
  193    -130.8      -7.6
  194    -132.8    -155.5
  195     -70.4    -129.2
  196     -72.7     -79.9
  197    -125.9     167.1
  198    -169.2     168.9
  199    -146.5      47.5
  200     -63.2    -115.1
  201         7      13.1
  202     -33.9    -131.4
  203     -53.1    -144.5
  204     -14.9      37.9
  205      87.6      77.5
  206      -4.5    -162.9
  207     114.9     126.4
  208        87      71.5
  209     100.2     112.1
  210     168.5     122.7
  211     -99.3      53.6
  212    -147.8    -101.7
  213     -70.5    -136.7
  214       -73     124.4
  215     -26.8      -5.7
  216     113.8     -44.4
  217      -167      80.2
  218      75.3      42.2
  219    -147.5     -10.9
  220     102.6      -4.4
  221       -83     -69.5
  222       148     121.6
  223    -169.3    -117.4
  224    -146.4     168.3
  225       3.8     170.9
  226     -25.6     114.5
  227     167.1       5.6
  228    -110.9    -102.2
  229    -113.5     -41.6
  230     -99.1      -6.3
  231     -17.9      -1.5
  232     -94.2        90
  233     -26.1     106.1
  234      19.5    -153.5
  235      -1.1     -74.3
  236     -72.2      19.6
  237     -97.7     -18.6
  238     131.4     -15.6
  239     139.3    -122.7
  240       119     -30.4
  241       -41     156.8
  242      99.7      -116
  243     -69.6     132.3
  244       -54     -64.4
  245     126.6        86
  246    -100.6     113.9
  247      -7.2     154.8
  248     153.2     -70.5
  249    -137.6       149
  250      56.5     -21.5
  251       112    -118.3
  252     -63.6     153.9
  253      -2.1     107.6
  254      54.8    -123.8
  255     120.8    -156.9
  256      42.1       8.9
  257    -163.5    -147.7
  258    -100.6      68.7
  259       133     114.8
  260      27.9      82.8
  261    -168.8      20.5
  262        -6      11.6
  263     128.7    -166.6
  264      63.6    -138.8
  265     153.2      61.7
  266      22.6     -22.2
  267     -71.2      40.8
  268       9.1     150.6
  269      -3.9     -19.4
  270     -48.2     128.9
  271       -96     171.9
  272     -82.5    -164.7
  273      36.6    -127.5
  274        37     148.9
  275      -1.9     -52.1
  276    -108.8     118.4
  277      95.4      22.8
  278    -165.7     132.1
  279      -168     102.2
  280     -19.8     -19.3
  281     -45.3    -162.4
  282      24.3     -42.4
  283    -111.2    -137.4
  284       124     161.8
  285      -127     104.6
  286     126.3     -82.4
  287     -25.4    -160.6
  288     136.8      90.5
  289     105.8     -65.1
  290        62      -168
  291       144     -60.4
  292      81.9    -124.4
  293     122.4     148.6
  294      32.4     109.8
  295     -60.2     -79.5
  296      -2.7      91.2
  297       -57     -43.6
  298      92.5     -88.3
  299      96.7     158.2
