    0     140.5     157.2
    1    -142.6     -76.8
    2    -117.8     168.5
    3      -137     -33.6
    4      72.9     -99.2
    5     107.3    -154.5
    6      62.8     120.8
    7     -63.5    -130.3
    8     -98.9      -2.8
    9     -85.4     157.6
   10    -143.8     142.7
   11       6.6      75.4
   12      64.7      74.8
   13     -26.6      37.7
   14      20.3     -32.7
   15      42.7      55.1
   16    -142.5     128.6
   17      94.7     -26.8
   18      24.9     121.9
   19     -76.4     -58.6
   20     -78.6     -40.9
   21    -148.8     171.9
   22      47.4      91.7
   23     103.8     -87.5
   24       -61    -134.2
   25     -43.4    -117.2
   26    -101.1     158.2
   27     -98.7     140.1
   28    -170.2     172.7
   29    -116.3      46.2
   30      68.6      -3.7
   31     -19.6       -86
   32     -48.6     -67.7
   33        22     -67.7
   34      43.7     -93.1
   35      33.4      99.1
   36     -39.4      -2.5
   37        74    -121.7
   38     133.2    -153.8
   39     -33.7     -75.9
   40     138.8        82
   41     -84.1      89.6
   42    -126.2      53.7
   43      89.5    -128.9
   44      -6.5      -157
   45     155.7       2.9
   46     -59.9     166.9
   47     -33.1     -64.9
   48      16.4    -165.9
   49     -33.3     -57.6
   50     -54.8     -63.7
   51        78    -168.7
   52      25.2     -93.9
   53     154.6      -123
   54      91.5       157
   55      61.1     110.1
   56     -29.7     -99.4
   57      38.8     125.1
   58      95.6       9.6
   59       116      28.2
   60      93.4    -132.3
   61     -86.1    -147.3
   62    -112.6     154.1
   63      25.8     134.5
   64      90.2     153.6
   65      94.2     -59.9
   66       6.3     158.4
   67     -46.3    -118.5
   68      47.4     -25.2
   69       1.5    -163.1
   70     -36.1     -52.4
   71      -102     -48.6
   72      38.9      14.4
   73      63.5     169.2
   74       111      87.4
   75    -117.4     -45.4
   76     110.3      44.8
   77    -149.2      26.6
   78      87.3    -139.9
   79    -154.8     150.3
   80     -38.4    -119.3
   81      61.6       2.6
   82      81.9      56.1
   83     -86.2     -77.3
   84      56.9    -144.3
   85      52.9     -86.3
   86      62.4      98.7
   87      35.5     -65.3
   88       9.1     132.1
   89     -87.8    -149.7
   90      83.6    -116.1
   91        -6      -0.9
   92     122.3    -119.6
   93     150.6      58.6
   94     -51.2       106
   95     162.1     -66.3
   96    -137.2     135.2
   97      55.8       1.4
   98     -48.4      31.6
   99    -123.8     -58.6
  100    -165.8     -53.1
  101      -107      57.3
  102     -68.8     -12.2
  103       5.2     168.4
  104     -11.3      16.7
  105      36.5     -24.6
  106     100.8     -85.3
  107      27.5     132.1
  108     -41.1     -27.3
  109     143.5     -31.1
  110    -156.6      -136
  111      -5.6      95.9
  112     123.5        15
  113     101.6       -51
  114      11.2      22.2
  115     115.6    -108.1
  116     -50.4       8.6
  117     -18.1      12.4
  118        77     -88.2
  119      41.2      36.1
  120      -163    -168.9
  121      34.2     107.9
  122    -171.5    -115.4
  123     -82.8     -54.7
  124    -107.2     -64.2
  125      35.1     -81.5
  126      66.9      63.4
  127     100.8    -168.7
  128     132.4      56.1
  129      61.5        -2
  130    -111.4    -153.8
  131    -120.2      41.7
  132      32.4      -145
  133     -74.9      10.2
  134    -107.5      48.5
  135      42.6     -72.9
  136    -143.6     138.3
  137      32.8     -47.9
  138    -104.9      71.4
  139     -45.8      36.5
  140     -51.9       130
  141    -130.8    -137.2
  142     147.3     130.5
  143    -133.4      32.1
  144      67.7     156.5
  145       -18      95.8
  146    -171.8      -105
  147       157     -65.8
  148     155.5      46.6
  149    -141.6      76.5
  150      79.2     110.8
  151     -80.8    -147.6
  152     100.8     171.3
  153      -2.5      44.5
  154       161     -57.9
  155      94.4     -67.6
  156     -99.8     -68.2
  157    -126.7      -102
  158    -117.1      64.8
  159      72.1    -172.1
  160    -141.2     -77.6
  161      93.1     -15.5
  162      -1.1        95
  163    -129.4     118.2
  164     142.7     159.5
  165       101      31.6
  166    -121.6      38.6
  167     -62.1     136.5
  168      29.2     -90.6
  169      77.5      24.4
  170        65    -117.5
  171     -41.7     165.9
  172     -32.2     155.4
  173     112.8     -85.4
  174      34.5      92.7
  175     124.5        46
  176    -121.5      51.9
  177     116.9    -107.6
  178     147.5     -92.5
  179      30.6        72
  180     -84.4     170.2
  181     118.3    -163.6
  182    -160.1      -1.1
  183      29.9      33.3
  184    -109.8      77.8
  185     -86.5      17.5
  186       8.4     159.8
  187    -130.6    -147.1
  188       121     -60.7
  189     144.6     -56.2
  190       -97     -24.2
  191     133.7      97.2
  192       -95     -86.8
  193     -40.7    -157.3
  194     -54.6      59.4
  195     -72.3     -66.4
  196    -161.3     109.3
  197     -94.8     -61.7
  198        92      39.8
  199     137.7     148.4
  200      29.4      71.5
  201      22.5     -55.8
  202     -29.4    -116.1
  203     161.9     153.3
  204      80.9    -139.9
  205      55.7     157.3
  206      97.7      48.6
  207    -125.7      51.9
  208     159.6     -33.3
  209      55.8      -1.1
  210      26.2       120
  211     -98.2     154.5
  212        28      61.4
  213     -13.4    -112.7
  214      -4.9      90.4
  215    -131.6        17
  216    -148.1      32.1
  217      66.8    -134.6
  218    -144.7     122.1
  219       143     118.3
  220      12.4    -143.7
  221     116.8    -170.6
  222     114.2    -165.1
  223     169.9       -52
  224       -77      34.6
  225     -12.1     -26.6
  226     -90.1    -113.9
  227     -42.8     115.8
  228       4.9     164.9
  229      33.1      66.1
  230      -128     -39.1
  231    -122.1    -166.2
  232    -101.9     154.9
  233    -107.2     -17.4
  234    -163.2      92.5
  235     168.5     150.9
  236    -168.8     -79.3
  237      90.6       105
  238      64.6     123.3
  239     124.8       137
  240     -42.7      -6.6
  241    -133.2    -135.3
  242      78.6      73.5
  243     109.3      -142
  244      79.9     -79.4
  245    -100.9     -40.2
  246     -30.3      34.5
  247     140.9     107.1
  248     113.7      -2.7
  249    -123.3     -54.2
  250      13.4     -67.6
  251       -87     -70.7
  252    -103.3      99.9
  253     -76.7    -152.5
  254     -15.1    -146.4
  255    -107.8    -100.2
  256      83.8     119.7
  257     -12.4     -87.8
  258       -99    -105.2
  259      38.1      81.5
  260       -31     -78.7
  261       -31      -114
  262     113.6    -116.5
  263       -49     -71.4
  264    -150.4    -137.1
  265    -113.5    -108.5
  266      61.8       6.1
  267     100.2     137.6
  268     -26.5     148.7
  269      91.2     136.9
  270    -164.3     -77.4
  271       -18    -130.7
  272    -124.9      51.8
  273     137.2     149.8
  274        54    -171.9
  275     126.6      69.9
  276    -168.7     121.8
  277     118.7       -43
  278      53.5      -0.5
  279      -3.4      87.9
  280     -61.8     109.2
  281     -26.1        97
  282       -71      -133
  283      80.4      43.3
  284     -76.6    -124.2
  285    -129.9     117.7
  286      -152      70.4
  287      -123     -46.5
  288      39.3    -171.5
  289     -59.8      59.9
  290     100.8    -113.8
  291      76.5     112.6
  292     -76.5    -161.2
  293      62.2      79.7
  294     155.4      62.7
  295     -61.2     -42.2
  296     -74.9     109.8
  297      28.6     -58.1
  298    -167.5     -12.3
  299     -93.4     -80.5
