    0     -10.9     -87.7
    1    -166.6    -116.8
    2    -163.3      39.1
    3     -71.7     116.7
    4     148.5     -31.5
    5      -156     -34.6
    6      93.9      20.8
    7     131.9    -162.8
    8        64     -20.1
    9     -31.4      16.9
   10       -41      81.1
   11    -157.6      58.2
   12    -136.7        34
   13     133.6      91.4
   14     172.5      93.7
   15     -47.5     159.8
   16      32.8      -8.7
   17      -3.4    -101.4
   18     -43.4     137.6
   19     190.1    -133.6
   20    -123.9     111.8
   21    -132.9      43.7
   22        98      47.9
   23      63.3      10.7
   24      21.3     -68.7
   25        76     -84.4
   26      80.7      17.9
   27    -143.5       -52
   28       179     188.5
   29        -3      -173
   30      68.9    -149.4
   31      74.9      20.3
   32       150    -199.1
   33       -84    -197.4
   34     139.6        60
   35     140.3      -130
   36      83.3      -108
   37     151.9    -181.2
   38     -34.4      22.9
   39     -63.8    -195.5
   40     -16.2      67.6
   41    -173.4    -107.9
   42     148.3     -19.3
   43    -196.9       9.7
   44      70.2       142
   45      85.7      18.9
   46       0.5      90.1
   47     184.3      14.4
   48     -17.5     115.3
   49     168.6     -35.9
   50     179.2     125.8
   51     120.2       4.3
   52      40.1      -0.8
   53     -71.4     100.1
   54     168.2    -168.9
   55     194.6       -14
   56     149.9    -105.7
   57       3.6      96.4
   58    -188.6     -79.9
   59     -70.3       1.2
   60     -36.8     -84.1
   61      36.1    -142.2
   62      95.2     128.9
   63        31     190.7
   64    -115.4     -28.7
   65     143.9     -85.7
   66     -18.7     -82.7
   67    -116.7     -91.8
   68     129.1     185.8
   69      39.9      59.8
   70      89.9    -179.7
   71    -104.5    -115.1
   72      -170     -20.6
   73    -197.3      -159
   74      32.2    -150.2
   75      -104    -156.9
   76     196.9     193.8
   77    -102.9      96.8
   78     193.1       146
   79     -21.8     -39.7
   80     123.5    -131.7
   81        44     -52.9
   82     -35.6      -121
   83     195.9     183.7
   84    -154.8      66.6
   85     140.9      32.1
   86      27.4       0.6
   87     -92.1     193.6
   88    -152.7     -46.3
   89      32.4       1.1
   90    -114.6    -154.6
   91     -25.6      18.1
   92    -177.6     -78.1
   93     130.2    -148.2
   94    -152.7     -17.2
   95    -198.6      96.7
   96      78.3       168
   97      83.5       -81
   98    -140.5     118.2
   99      36.4      -5.4
  100     196.1     -80.8
  101    -100.6     -85.8
  102     -10.4      44.9
  103     113.7     166.7
  104     137.6       110
  105     -86.6    -185.6
  106     158.3      45.5
  107    -150.2     -28.3
  108    -196.5       -91
  109       9.2    -199.2
  110     -77.1     -56.7
  111    -111.6     -64.1
  112      -159    -105.2
  113      89.3      48.7
  114     -89.9       4.3
  115       196    -132.2
  116     101.6    -116.6
  117     195.6     -34.5
  118      98.1      88.4
  119    -192.9      21.7
  120     148.9      -196
  121      -121      80.8
  122     150.5    -149.2
  123    -180.5     111.8
  124    -183.5      26.1
  125      20.6     184.8
  126     197.9      -5.9
  127      39.8     176.5
  128      -184     -64.4
  129     -98.9     117.5
  130        72     169.6
  131      78.3      92.4
  132      -5.7     -38.2
  133       -78       7.9
  134     187.2     -71.3
  135      94.7     138.2
  136      41.8    -146.2
  137     -24.9       -37
  138      74.2     -75.3
  139      -6.6    -191.2
  140    -149.8       6.9
  141    -136.7       6.8
  142     162.6     164.2
  143    -131.5      79.6
  144     -79.8    -160.5
  145       171    -130.6
  146      13.7     108.7
  147      99.4     -79.9
  148    -180.7      19.2
  149     -16.1      -174
  150    -196.8    -173.7
  151      -104    -141.4
  152    -110.4     139.9
  153    -140.2     186.1
  154    -145.8     193.2
  155    -106.1     195.7
  156    -194.1    -152.2
  157      48.8    -167.4
  158    -180.2       145
  159       0.2    -131.5
  160       -17    -181.5
  161     -36.7    -189.4
  162     -83.8     178.7
  163        88       -35
  164      -166     183.2
  165      98.9     -33.4
  166    -194.7     103.9
  167     -57.5    -112.4
  168      77.9       5.3
  169       4.1    -162.3
  170     -72.4    -155.4
  171      55.9     167.7
  172    -102.8    -192.7
  173     -99.1     190.5
  174      84.8      90.6
  175      72.7     -70.6
  176     146.3     -53.2
  177     -44.7        10
  178        73      -0.8
  179      85.1    -196.3
  180    -191.5      43.5
  181      -2.8     139.3
  182     -34.8     -53.3
  183     -21.4    -107.4
  184     104.7    -144.3
  185      91.1     -32.1
  186      44.2     129.8
  187      26.6       -17
  188    -149.5       6.7
  189     -43.9       -29
  190     -14.5    -182.5
  191     -63.5      10.9
  192      64.4     161.3
  193      36.4      99.1
  194        90      52.4
  195     -55.6     -24.5
  196    -174.7    -147.2
  197    -178.4      16.1
  198     166.8    -197.6
  199     -39.1     103.3
  200     180.8     -40.9
  201    -183.2     -10.8
  202      66.2     -37.9
  203       -34      61.7
  204     104.6      29.6
  205     -36.6      27.6
  206    -137.8       4.6
  207      54.7      23.9
  208     104.3    -138.7
  209     108.8      71.5
  210      85.6      82.9
  211       132       -18
  212    -120.6     125.9
  213     127.1      31.3
  214       6.8     181.3
  215      58.8       112
  216      29.4      46.2
  217      89.4      76.8
  218     -31.8     -82.5
  219    -153.6       187
  220    -189.4     122.2
  221      84.1     -24.2
  222     167.7     193.6
  223     -97.4        42
  224     145.3     -91.4
  225      86.8    -116.3
  226    -109.1    -102.2
  227     126.5    -112.6
  228    -121.6      40.3
  229    -118.6     182.1
  230      -5.8      56.3
  231    -146.1      73.4
  232      85.9     109.8
  233    -170.2     -31.7
  234    -162.4    -165.7
  235    -147.3     -95.9
  236      32.5      -6.7
  237      92.1       194
  238    -132.6     -11.7
  239     -31.6     -98.9
  240     -20.6    -172.5
  241    -102.3    -145.5
  242    -150.8     166.7
  243        19     -81.8
  244      42.2    -164.1
  245      64.8      27.8
  246     -49.4      62.4
  247     -59.6       -95
  248    -101.3       5.6
  249     -28.9     163.8
  250    -126.1      13.4
  251     -17.7       121
  252     146.4        14
  253       174    -177.2
  254      39.1    -144.7
  255     152.5        -0
  256       111    -195.2
  257      -119    -134.8
  258      16.6      21.9
  259     113.1      63.8
  260     103.4      15.1
  261      69.9    -109.5
  262    -189.9      97.5
  263     -74.7      86.4
  264     128.3    -148.2
  265    -140.7     -74.2
  266     -10.6      18.3
  267      44.9     -91.9
  268    -158.8        18
  269     128.6     -34.6
  270    -126.9     -76.4
  271     167.8      99.5
  272     156.9    -110.1
  273     -11.3     159.8
  274     161.5    -142.2
  275     124.9      75.6
  276       107     142.9
  277     101.9      54.6
  278      19.4     121.8
  279      27.5      59.9
  280     147.8      28.8
  281      52.6      79.5
  282    -191.1    -125.4
  283      63.1      98.3
  284       -82     101.5
  285     167.3      87.7
  286    -127.7     -15.4
  287       -60     123.3
  288      46.5      -5.5
  289     185.3     144.5
  290     164.8     131.7
  291     -16.9      -132
  292      10.5      46.8
  293     -21.6       -33
  294     -62.7     158.2
  295      -121    -169.6
  296        43     -20.4
  297     -78.2    -187.6
  298    -130.6      70.9
  299    -128.4        87
  300    -109.3    -176.8
  301     114.2      17.7
  302      -148    -107.5
  303       6.8     157.3
  304      21.8      -107
  305      47.9     -11.7
  306        20     163.1
  307    -171.3     -82.5
  308        84    -183.4
  309     -70.4    -162.7
  310    -164.3    -108.3
  311     123.9     -34.9
  312      -188      -190
  313      50.2    -125.3
  314      20.8       -42
  315     -82.3    -167.9
  316     -14.5    -195.7
  317    -194.5     -53.8
  318       140     -36.3
  319       -81      50.1
  320    -162.9      22.3
  321     -33.9    -177.7
  322    -166.9     134.3
  323      15.4      63.4
  324     109.9    -195.1
  325     198.3    -162.6
  326      98.4    -129.7
  327        19      -6.3
  328     165.3    -112.1
  329    -166.3       179
  330    -174.8     149.3
  331      61.5    -145.9
  332     -58.8     128.5
  333    -109.8      26.6
  334     -23.4     177.2
  335    -160.7    -187.3
  336     -40.7    -118.5
  337     -58.1     140.6
  338    -177.5    -110.3
  339     -90.7     -92.8
  340     183.3    -173.5
  341    -160.5     101.9
  342      22.2     -95.9
  343    -166.5       8.7
  344     126.3      43.9
  345    -119.5    -199.6
  346     157.3     120.7
  347     -24.8      35.8
  348    -190.9     -58.1
  349    -170.2     -25.7
  350     -85.2     174.5
  351     143.4      18.7
  352     -32.1      32.6
  353     -10.1     199.4
  354     -80.8     136.6
  355    -111.1      13.2
  356     -88.4     -41.1
  357     -79.1     -72.4
  358      -184    -134.1
  359      49.2    -135.3
  360    -169.6     -28.9
  361      11.4     176.4
  362       4.4    -189.4
  363     -56.4      22.7
  364       -47    -146.7
  365    -101.8    -132.2
  366    -180.3      59.6
  367    -180.8    -195.9
  368     154.6      99.8
  369     137.1      17.6
  370     166.6      44.6
  371     145.5     -92.1
  372        15     142.1
  373     -77.2       174
  374    -198.4        91
  375     160.2     -20.9
  376     125.9      25.1
  377      59.7     -92.9
  378      66.2      19.7
  379      64.2      22.6
  380      -151     -66.2
  381     -18.2     147.7
  382      69.4      -0.9
  383      67.2      67.4
  384       -76       -30
  385        23     -23.5
  386     -79.3      45.8
  387    -117.4      80.6
  388     -74.1     178.4
  389     137.8      63.2
  390      12.9     177.1
  391    -126.6     131.7
  392     173.3      23.8
  393    -128.7     -44.8
  394     -45.3      11.6
  395    -153.1         6
  396        86     117.2
  397     -20.5      17.3
  398       -46    -178.2
  399     -99.6    -130.3
