    0     -13.1        84
    1      65.7      14.5
    2     149.1      -187
    3     -14.2      70.8
    4     -84.6     153.2
    5     114.4      38.8
    6     -51.9      51.5
    7    -191.1    -150.1
    8    -158.8     -36.9
    9     193.5      63.9
   10     -81.9     -92.8
   11      39.9      76.2
   12      -138      -172
   13     -63.3    -140.8
   14       -60     170.4
   15    -190.2      52.2
   16     -15.6     -13.7
   17    -144.4    -189.3
   18    -105.5        81
   19     -49.9        29
   20      18.9     114.5
   21      -3.1     147.7
   22     -16.9     -31.9
   23    -124.8     158.3
   24       -75    -108.7
   25    -148.7      19.1
   26    -102.3     138.7
   27       116      93.1
   28    -192.9    -188.3
   29     -89.7      20.5
   30      41.3      16.6
   31     101.9      40.2
   32     -40.7      -149
   33      74.6     170.1
   34      -2.1     -67.9
   35      -5.8      61.1
   36     161.1     -21.1
   37     111.8     135.6
   38    -146.4     -39.6
   39     168.6      23.8
   40    -177.7     123.4
   41     163.9     110.7
   42     -33.9      -189
   43     -51.7    -195.4
   44     178.7     -14.7
   45     105.8     -58.1
   46     -14.7     166.7
   47     -13.6       139
   48       137     -98.3
   49     152.2     104.5
   50     -76.1    -127.4
   51      -101       124
   52     170.8     -39.5
   53     -83.7       130
   54      77.3     175.3
   55     -51.9     169.4
   56    -135.1     164.2
   57       -83      81.6
   58     193.9      11.8
   59     -25.9      -1.1
   60     -88.3      44.1
   61     -63.1    -118.2
   62      -104     -51.3
   63     -21.2     102.6
   64     155.6     124.3
   65    -169.7      88.3
   66     -50.5     -28.8
   67     -41.9    -162.5
   68        89      35.9
   69     -19.3     120.8
   70     -15.8     -77.8
   71     185.3     180.1
   72     197.1      80.8
   73    -191.3     -62.5
   74    -135.4     191.2
   75       -57     -72.9
   76     153.5      -154
   77     -69.9     -38.3
   78     -90.1    -146.5
   79     -93.2     147.4
   80    -134.5    -132.5
   81     -36.7      58.3
   82     -35.8    -140.5
   83     177.5      83.7
   84     169.4     -55.5
   85     -12.7     -39.4
   86     117.1      73.2
   87     -35.7     103.8
   88     -24.5     103.2
   89      49.7     -53.6
   90    -126.1     161.7
   91     117.3     102.4
   92      -136    -188.5
   93       124     165.1
   94     175.7     -65.7
   95     110.8     152.5
   96     129.8    -157.8
   97       118    -186.3
   98    -129.9     -68.9
   99    -124.5    -192.9
  100      78.1     -12.3
  101     -68.7     164.1
  102    -168.8    -137.3
  103      81.6      50.7
  104     169.5    -176.4
  105       -37    -161.2
  106     -69.9      98.6
  107      71.7     -99.3
  108    -184.5     123.5
  109      69.9     -61.8
  110        55    -193.3
  111    -156.3      59.4
  112      23.9       122
  113     173.9    -183.5
  114     -18.2     142.5
  115      83.1        15
  116      93.6    -170.3
  117     120.1       -91
  118      94.2      87.6
  119    -153.7     193.6
  120     -39.4     196.8
  121     -15.6         8
  122       154     139.3
  123    -106.6     -39.5
  124     192.9     -72.7
  125      31.6     189.7
  126     121.7    -150.9
  127      70.7    -127.9
  128      35.7     142.9
  129     -77.1      -9.1
  130    -173.7      12.6
  131     -56.2     176.9
  132     -92.8      97.3
  133     -26.2      -165
  134    -113.8     -92.4
  135    -119.9     -32.3
  136     -56.7     -59.9
  137        62     -90.7
  138      -121     -16.1
  139     182.1     182.6
  140     193.6     130.9
  141     185.4      90.9
  142     162.1       2.1
  143    -130.3      57.1
  144      65.9     -96.5
  145    -130.7     123.7
  146     143.2    -177.5
  147     -86.5      -175
  148    -177.6     -20.5
  149      24.8      44.7
  150     199.9      44.5
  151       117      70.8
  152     124.2     -66.8
  153      56.5      60.9
  154      50.7      95.2
  155        50     130.4
  156      27.3    -195.3
  157      -180    -124.7
  158     -24.7       169
  159      31.1     -56.7
  160    -172.7     -35.3
  161        30    -135.8
  162      84.4    -183.7
  163     160.7     153.9
  164     -44.7      28.1
  165     -81.7       103
  166      40.4     -17.2
  167    -196.5      63.1
  168     -77.4      18.5
  169     140.9      43.3
  170      27.6      98.1
  171     -78.2    -170.3
  172     116.6     181.7
  173     136.6      39.3
  174     172.7    -184.6
  175    -142.4     122.4
  176      45.6    -149.8
  177     -65.5     -75.7
  178      14.6    -199.7
  179     166.4      20.8
  180    -165.5     157.2
  181      11.6    -162.7
  182      25.5     -30.6
  183    -101.1     -32.6
  184     170.2    -199.3
  185       0.9      99.7
  186     -19.6     -19.7
  187     -65.3       169
  188    -103.9    -142.9
  189    -150.8     141.5
  190     178.1     -30.3
  191     -35.3      48.2
  192      58.5      45.9
  193    -175.4      78.3
  194     -89.1     -56.8
  195     -76.1     -54.8
  196       1.3      43.5
  197     174.9     137.6
  198     -14.7    -186.1
  199    -125.5    -131.1
  200     -88.8    -152.9
  201      34.7     -64.5
  202      92.5      91.8
  203     -61.6      99.1
  204    -186.6     -11.1
  205     -16.2         3
  206      -172      22.5
  207      -120      37.4
  208    -183.2       0.4
  209    -145.2       -37
  210     162.6     -23.5
  211     -60.7     109.3
  212       9.1       -74
  213     190.6     156.4
  214     162.6      88.3
  215     114.6     -84.6
  216       2.3      87.5
  217     152.9     -81.1
  218     159.5     -54.7
  219    -104.9    -166.7
  220     128.2    -102.4
  221    -120.6     107.7
  222     171.3       127
  223        44      68.8
  224    -116.8     124.8
  225      91.8    -122.3
  226       -28        -6
  227      31.1     -42.3
  228        24    -193.4
  229     153.9     108.4
  230      12.4       127
  231     -84.3     -82.8
  232     -87.1    -185.9
  233     178.7    -119.6
  234     -10.1    -184.1
  235    -120.4      47.7
  236       113    -133.9
  237     -12.8       1.6
  238    -130.5        -1
  239    -190.5     184.1
  240    -166.6     192.5
  241     115.2     -15.8
  242     153.6        52
  243     130.1     197.6
  244      24.8    -150.7
  245      72.1      71.3
  246    -197.6      26.9
  247    -113.1       147
  248     124.7      81.9
  249    -152.3       -87
  250    -195.6     -58.9
  251        79    -119.5
  252      52.5     -60.4
  253    -129.2    -106.6
  254      -3.5     116.7
  255    -158.2      87.2
  256    -144.7     139.6
  257    -183.2     -93.1
  258     -65.6     169.4
  259    -120.1      -1.5
  260    -197.5     -19.3
  261    -134.7       -15
  262    -187.1    -152.5
  263     -50.2       140
  264     131.8       108
  265         8     -27.5
  266    -163.7       121
  267      -6.9     132.7
  268      44.3     -73.7
  269    -193.3    -145.6
  270      38.7     120.8
  271     118.8     -55.4
  272     -50.6      64.6
  273      -199     -67.4
  274     153.9     -72.4
  275    -163.7     192.7
  276     160.7    -109.8
  277       166      51.8
  278     -63.5      10.9
  279     138.5      -106
  280      41.1      72.2
  281    -179.7    -123.3
  282     -68.5     118.4
  283        34      67.5
  284        -2     196.4
  285     -16.4    -181.7
  286      -105      14.6
  287     -69.3     -14.7
  288     -71.4    -171.3
  289     184.7    -189.5
  290      64.3      70.3
  291    -132.1      74.7
  292     115.6    -170.8
  293     -80.7     -63.3
  294      78.4     101.5
  295     199.4    -130.6
  296     171.8     -83.1
  297     -42.3     106.3
  298     -51.8      58.1
  299     -73.5      -189
  300      36.1      82.9
  301     102.7     -18.8
  302    -123.2     163.7
  303    -119.5     100.9
  304    -181.4    -144.8
  305     197.3     -47.5
  306       130       104
  307     -44.4    -198.3
  308      95.7    -187.9
  309     -17.3     -32.8
  310     156.2      66.2
  311      -8.2     188.7
  312    -144.5     146.8
  313      -194    -195.7
  314     157.2      27.9
  315     -92.2     -48.6
  316      93.5    -118.7
  317     177.9       1.8
  318     -91.8      96.4
  319    -116.6    -154.7
  320    -142.8     -69.8
  321     180.7      -167
  322      28.1    -102.5
  323     192.9      -6.7
  324     -57.9      15.3
  325     -73.8     -66.8
  326     100.2    -185.5
  327    -112.8    -162.7
  328    -163.4    -170.8
  329    -136.9     -23.7
  330      41.9      77.9
  331     -72.5     -60.4
  332     -82.6      49.3
  333     135.3    -198.7
  334     -74.6     103.4
  335     -32.7        35
  336        95       2.4
  337     -10.7     -11.4
  338    -151.8      82.1
  339     -14.4     131.6
  340     108.6     -21.8
  341      32.3    -112.8
  342      -147      18.5
  343     -30.3    -137.1
  344    -128.2     193.8
  345     139.8    -109.5
  346    -102.1    -179.4
  347        48      89.1
  348    -132.1       7.4
  349    -186.2     -36.6
  350    -122.5        38
  351    -127.5     -50.9
  352      -5.1     182.6
  353     189.9      18.9
  354      92.4      51.6
  355      52.4     161.3
  356      61.1    -197.7
  357        96       144
  358     169.7     112.6
  359      35.9     175.8
  360     -69.7      -167
  361     159.3    -122.8
  362      33.7      31.1
  363      43.8     -24.3
  364     117.2     138.6
  365     164.6     134.4
  366     125.9     115.8
  367    -148.1       129
  368      32.4     -55.5
  369        62     185.4
  370      75.1     -37.5
  371      24.1      89.4
  372    -121.7     151.9
  373    -175.2      81.2
  374    -181.9    -106.3
  375      -5.2     -51.3
  376     193.9     -98.4
  377       157     129.7
  378     -29.9      -153
  379    -197.8      37.8
  380    -149.9     188.2
  381      51.5    -177.2
  382    -155.6       115
  383    -129.3     -21.3
  384      95.6       124
  385      -2.5    -187.3
  386     -76.6     -66.4
  387      44.1     -14.3
  388    -148.6    -146.5
  389      38.9     138.7
  390     -21.6     -78.7
  391      -132      16.9
  392    -143.3     116.8
  393    -118.7     -96.5
  394      40.3     -31.5
  395     122.9     -23.7
  396      64.2      64.1
  397    -149.2      -0.1
  398    -180.5     176.5
  399       6.9     164.8
