    0    -184.5     -51.4
    1      22.1      -112
    2     118.4    -116.4
    3      -2.6      91.5
    4     -88.5     119.3
    5     -32.1     -20.5
    6     152.8     167.3
    7      42.5    -106.6
    8      13.7     127.3
    9      82.6     -29.3
   10     117.9      19.5
   11       152    -155.7
   12    -106.4     -21.2
   13     -13.2      82.9
   14     101.8     120.6
   15    -152.3      -114
   16      -198      -108
   17     115.3     144.8
   18      19.7     120.5
   19      -5.4     -18.4
   20     176.6     -26.5
   21    -112.9    -118.2
   22     -53.3      39.5
   23     196.1     -71.3
   24    -199.6     145.1
   25     -73.9    -144.7
   26     100.3     -80.2
   27    -160.9    -175.5
   28       9.1     -79.8
   29       -69    -148.5
   30      73.8     127.6
   31     -10.5     -20.9
   32     148.7      30.3
   33     196.3     -79.6
   34     118.3       -96
   35     137.4    -120.3
   36      -116     -98.1
   37     -18.3      65.1
   38      76.4     167.4
   39     192.6      -195
   40     -44.1     182.6
   41     -66.7     180.7
   42     -35.7       164
   43     129.8    -111.3
   44     189.2     -81.8
   45     153.1    -156.6
   46    -195.1     -29.6
   47      83.7    -165.8
   48     -49.3     -21.5
   49     -79.9     -50.5
   50     -89.3      44.4
   51      94.9      78.3
   52    -143.2     -65.1
   53      -140    -195.4
   54      16.6    -173.1
   55     -95.7         5
   56     -68.7       -14
   57     165.7      62.6
   58      62.5     193.6
   59      -0.5      10.3
   60    -186.5     -65.5
   61      67.7     -85.2
   62    -173.9     156.2
   63     -90.9    -184.5
   64    -184.5      14.2
   65     154.5     128.8
   66    -193.9    -185.8
   67     148.8    -168.1
   68      30.5     -34.3
   69     -57.3     -62.2
   70     154.7     -43.5
   71    -183.8     -25.7
   72    -109.5     -36.2
   73    -102.9     179.3
   74      60.3     -87.4
   75    -163.8     -74.7
   76     173.8     193.6
   77     -98.2    -115.2
   78     -19.2      54.7
   79    -143.2      49.7
   80    -136.9    -122.9
   81     179.7       -82
   82     -74.1     148.9
   83      -6.5       158
   84    -146.5     149.8
   85    -136.9      64.8
   86     190.1     -43.1
   87    -174.5     120.7
   88     -90.3     -12.6
   89      14.1     -28.5
   90     135.6      87.4
   91    -159.5     -67.6
   92      74.5     -17.8
   93      -105     -65.5
   94    -174.9      -102
   95     130.2      25.9
   96     126.1     -30.3
   97      88.3       -61
   98     104.3      46.2
   99     -64.4    -163.8
  100    -113.8     105.2
  101        67     148.2
  102     -64.7      91.6
  103      42.1    -185.4
  104     -22.3     190.4
  105    -184.4      42.4
  106     178.8     -52.8
  107      25.3      92.5
  108    -167.5      49.6
  109    -100.7    -192.2
  110    -172.7     -19.4
  111     -54.4     195.8
  112     149.4     157.1
  113     -14.6     -23.8
  114    -112.1     166.3
  115      94.4      -191
  116    -198.1     112.6
  117    -187.2     113.1
  118     114.8    -113.5
  119     -11.6     188.9
  120      -4.2     168.9
  121    -187.1     157.7
  122     192.5     -16.7
  123      -184    -170.9
  124      77.3    -192.3
  125     179.3      11.2
  126     168.4    -140.2
  127     -68.4     -26.5
  128     190.7     166.5
  129     -11.2     176.6
  130     135.6        32
  131       1.6       -19
  132     -13.8       -85
  133     -28.7    -152.9
  134     -34.1     129.9
  135     199.3     139.2
  136     177.6     181.8
  137       130      45.6
  138    -107.8     -50.2
  139      50.7     -71.7
  140     150.6     130.8
  141      -188    -186.6
  142     -58.1     -44.8
  143     129.2     135.7
  144      19.8     -11.9
  145    -171.3    -150.3
  146    -180.8      28.4
  147    -198.6      19.6
  148     -62.8       -82
  149    -174.3       0.4
  150      38.3      72.8
  151    -177.9     -76.8
  152    -150.4     -49.9
  153     103.3     196.9
  154     -94.3      63.2
  155     179.9     138.7
  156     106.9     155.7
  157      -113      45.8
  158     -46.2     -51.2
  159      -7.8      21.6
  160     119.3    -125.9
  161      47.7    -132.5
  162      22.7    -196.5
  163    -149.3     154.5
  164    -134.5     -10.4
  165    -128.2     -14.6
  166     194.2    -171.6
  167    -183.3     -38.7
  168    -149.5    -142.4
  169    -118.2    -135.2
  170     173.4    -197.4
  171    -133.5     -28.8
  172     -86.8      81.7
  173     -93.6     -97.7
  174     -77.6     -14.6
  175     -13.5     -67.2
  176      84.3     -60.4
  177         1    -135.5
  178     -57.3    -132.5
  179     -81.4     -21.9
  180    -105.5    -139.6
  181      -182     -22.7
  182       8.3     -27.4
  183     155.5      36.6
  184     131.5     150.5
  185      26.8      -135
  186       -52     -90.7
  187     186.1    -100.5
  188    -151.3     -29.4
  189     184.6     139.1
  190      78.7      -128
  191      -9.1     -66.5
  192    -177.7       162
  193    -143.7    -162.5
  194      88.3        -7
  195     -13.2      45.1
  196      59.5     -76.5
  197       185     113.8
  198     -32.2       -56
  199    -176.8      94.4
  200     156.4     137.4
  201     -87.7     175.8
  202     194.8     -12.6
  203      26.6     159.5
  204     105.4     146.7
  205    -151.3    -124.8
  206     -33.7    -121.8
  207      96.4    -149.7
  208     -46.8     -18.7
  209     193.7     146.2
  210    -119.1      15.4
  211    -150.3    -127.3
  212     -91.1      34.4
  213     -93.9      94.8
  214    -127.6      43.2
  215      17.4    -157.5
  216     101.5     189.6
  217     124.8     -62.2
  218      -8.2     103.5
  219      88.6     -50.2
  220     -12.4      -3.1
  221      38.4     191.8
  222        41     -63.7
  223    -193.4      72.4
  224    -190.4    -100.2
  225       5.9     -87.6
  226      54.9    -167.7
  227     -86.1     -59.2
  228     103.3     -88.8
  229     -72.8       -17
  230      34.3    -166.2
  231     147.7     -48.5
  232      55.5     140.7
  233      63.1    -145.7
  234     129.3     -13.6
  235      84.9    -168.7
  236     -87.6     -29.5
  237     -94.5     132.9
  238      71.4      40.8
  239      37.7     -48.5
  240    -163.4    -117.5
  241    -101.8    -179.4
  242    -143.4    -195.8
  243      -1.3      91.8
  244      15.8     -65.5
  245       6.6    -196.5
  246      78.3     141.6
  247    -163.3      54.3
  248      19.8      86.9
  249     -61.3       191
  250       -90    -172.2
  251     -58.9     127.8
  252      -191     -20.7
  253    -185.2     -95.3
  254     -61.7    -151.1
  255     -81.8    -198.3
  256      -8.4     156.9
  257      88.1     117.9
  258    -154.8     -46.4
  259     135.9     -69.8
  260       132     -52.7
  261       -85     -56.1
  262     141.5    -145.1
  263     119.1     -53.9
  264       -92     -13.1
  265     -24.5     -23.8
  266     -50.6    -118.4
  267     195.2     125.1
  268     -80.7     197.6
  269     143.2      76.2
  270      35.2    -119.8
  271     -10.6      99.7
  272     144.7      12.9
  273       5.8    -186.4
  274    -107.7     -34.1
  275     169.6      23.5
  276      50.1      55.3
  277    -164.2     -45.7
  278      73.7     -75.4
  279    -157.7       -15
  280     -53.5        62
  281       9.9    -199.6
  282     175.2      64.4
  283      -2.3      71.8
  284      -2.2    -137.9
  285      80.2     -21.3
  286      68.2     -83.2
  287    -195.3    -115.4
  288      78.3    -197.1
  289    -105.9    -120.3
  290     -18.1     -11.2
  291     156.6     -98.6
  292      80.7    -173.6
  293     -35.3     147.3
  294      -163     164.2
  295      66.3    -108.6
  296    -125.9      -4.2
  297    -109.2    -182.9
  298    -172.2       -45
  299     -88.4       -21
  300     111.4      72.4
  301        28       106
  302    -144.5    -196.7
  303     -69.7     -41.8
  304    -112.5       142
  305       8.1      50.8
  306    -189.3    -167.4
  307     -33.8      56.3
  308        47    -108.8
  309       110        -2
  310     -93.8      49.5
  311      63.3     -51.9
  312     141.9     134.4
  313    -120.2     141.9
  314      -140      -4.9
  315     -87.8      20.2
  316    -160.6     190.1
  317       1.1     114.4
  318     128.3    -153.1
  319     -55.1      84.5
  320     -20.1     -92.6
  321    -184.5      23.8
  322     -12.3       170
  323        80     -57.2
  324      84.7     -57.2
  325      92.6     143.9
  326      68.4     -81.2
  327     118.2    -199.4
  328     -86.2    -113.4
  329    -149.4      52.9
  330     137.2    -111.3
  331     187.8     131.4
  332    -126.3    -160.4
  333      26.5      22.8
  334     129.9      17.3
  335      39.5     190.2
  336    -124.6    -160.8
  337      -3.6    -141.8
  338      34.5     136.3
  339      -7.7     -21.7
  340    -158.2     -63.2
  341     145.8     -14.8
  342    -176.6     173.2
  343     -71.6      56.9
  344      -134     123.7
  345      89.8      -8.9
  346    -162.9    -197.9
  347     -61.4      11.1
  348      18.8     107.6
  349     143.9    -187.3
  350      16.4     -53.6
  351    -182.2     -35.5
  352    -193.5     139.9
  353      43.6     -24.1
  354     -14.9     129.3
  355    -190.1     -57.4
  356        79      91.3
  357     115.3      84.5
  358     -16.6      75.8
  359    -196.3    -112.8
  360     187.3     -20.9
  361      96.2     -40.5
  362    -149.8     -35.4
  363     177.8     -79.5
  364      -8.5     -56.4
  365       5.1    -172.3
  366      56.1       129
  367    -104.2      59.1
  368     -81.6      74.2
  369    -137.9     -38.6
  370     -13.7    -190.9
  371      -148     177.9
  372    -130.5      86.7
  373    -140.6     166.9
  374    -126.9     152.7
  375    -133.4    -175.5
  376       179      49.3
  377     181.3     -76.2
  378     -20.8    -132.5
  379     130.8      -117
  380    -178.8     159.3
  381      74.9     -25.7
  382    -169.9     -77.8
  383     -97.8        88
  384    -131.6     -30.2
  385     169.8     161.7
  386    -103.1      98.5
  387    -149.7       -11
  388     198.9    -133.8
  389        49     -80.1
  390     129.7     192.2
  391      51.8     164.2
  392    -145.1      -7.2
  393    -130.9    -187.6
  394     139.5    -135.2
  395      35.5      84.6
  396    -150.2      -171
  397      30.2     121.3
  398    -168.3     -54.3
  399      78.1      -172
