    0      12.9    -145.3
    1    -158.5     -78.5
    2      30.9    -158.1
    3    -170.6    -109.4
    4     178.8      70.2
    5      -187      -121
    6     162.4     174.1
    7      35.6     -84.5
    8    -181.2    -129.4
    9    -141.4     177.9
   10      28.9      74.8
   11      65.6     -69.5
   12     -45.9    -162.7
   13      98.4      66.1
   14    -137.4     117.7
   15     -12.1     -37.1
   16      -195         5
   17     141.9     -27.9
   18    -195.2        -1
   19     -47.7    -154.3
   20    -176.6     -36.6
   21     -15.7      18.7
   22     -36.2     -35.3
   23     -89.6      57.5
   24     -24.5       8.7
   25     151.1     -12.8
   26     122.2      86.7
   27     185.5      10.8
   28      75.2     145.1
   29    -106.5     -68.7
   30    -104.6     189.4
   31      93.2     191.5
   32     166.2     136.4
   33    -165.8    -158.6
   34       139      26.4
   35    -188.2       148
   36     155.3    -192.2
   37    -137.9     -41.6
   38       6.5     107.2
   39     -97.7     -70.1
   40    -105.1        -3
   41    -122.2       138
   42      57.6     -26.8
   43      78.9     177.3
   44     116.3     156.1
   45     189.2    -135.3
   46    -184.5     -74.9
   47      29.3        60
   48    -188.3    -197.1
   49     -43.5     115.5
   50     175.1     198.5
   51      -115    -133.7
   52        68    -176.9
   53      87.5    -125.2
   54    -139.4      -8.6
   55     -58.4    -157.9
   56     -51.4      20.8
   57     183.2      97.6
   58     -66.9     -59.9
   59      29.2      80.2
   60      27.1     121.1
   61     -67.2     -76.1
   62     -50.8      45.9
   63     132.5    -140.9
   64     -30.5      -179
   65     159.2       -57
   66     167.7    -147.9
   67    -138.6        32
   68     167.4    -108.7
   69     -85.8     107.1
   70    -191.5      69.8
   71       -29      66.3
   72    -179.4     -72.1
   73      23.9    -104.3
   74     159.5      55.2
   75     -67.8     132.2
   76    -130.2     -46.3
   77      -116     -70.4
   78     135.1     -64.3
   79     -48.1    -158.1
   80     -20.1    -130.3
   81     -94.8    -165.2
   82    -116.3     186.5
   83    -156.9      38.9
   84     -27.9     -42.9
   85       8.1     -43.1
   86      45.3    -142.6
   87     -54.4      36.7
   88     107.5      28.6
   89     169.2     124.6
   90    -140.1    -150.7
   91      96.2     -91.8
   92    -180.8      29.6
   93    -184.6    -135.5
   94     124.7      40.4
   95    -151.3    -175.8
   96      95.6      90.5
   97      70.1      64.5
   98    -197.7    -136.6
   99     -55.4      43.4
  100       -87      27.7
  101      48.1      88.3
  102    -121.5     -68.5
  103    -166.8     -49.5
  104     -81.6    -104.5
  105       0.8     -60.9
  106      69.8     -84.7
  107        42     145.9
  108     162.4     -12.8
  109     111.7    -125.9
  110     -18.5    -131.1
  111       197     -15.7
  112    -117.9    -112.6
  113     141.9    -131.9
  114     -84.4    -192.7
  115    -107.1     164.3
  116     133.5     172.7
  117     -74.9       128
  118     128.1     -67.8
  119      13.8       -33
  120      74.9     -36.1
  121     -87.1    -143.5
  122     137.5     -91.2
  123     102.8     -54.7
  124      99.2     -72.5
  125     170.3    -133.7
  126      82.1      -7.6
  127     183.1      62.8
  128    -182.9     -73.2
  129    -178.9    -155.7
  130     127.9         5
  131    -172.3        83
  132      89.6     124.1
  133     142.8    -134.7
  134     -73.3     161.9
  135      80.2    -191.7
  136       -89     -68.3
  137     112.3     156.6
  138     123.6     147.9
  139    -175.5     -30.8
  140     141.8      13.8
  141       1.1     -88.5
  142     -85.1      44.4
  143      -194       163
  144        91     137.9
  145    -179.4     -46.2
  146    -143.9     -94.3
  147       -99    -156.7
  148     149.8      76.6
  149    -182.7      51.7
  150     -80.8     -14.6
  151      37.5     -41.2
  152      73.4       -41
  153    -181.7      81.6
  154       1.2      13.2
  155     -34.5      42.5
  156     114.8      71.9
  157    -173.6    -157.4
  158      81.5     -78.7
  159    -122.9     -49.4
  160    -193.3     112.1
  161    -134.1     -79.5
  162      29.6      21.3
  163    -122.8    -148.4
  164      -5.1    -112.6
  165    -122.8       1.4
  166    -136.8    -169.7
  167     -96.6      65.5
  168     121.2    -131.5
  169      62.5    -163.6
  170      56.1     -52.4
  171      96.4     -47.1
  172     -44.5      -9.7
  173      81.2      55.1
  174    -104.6     181.7
  175      20.4    -146.2
  176     179.4     -96.6
  177    -104.9      30.2
  178    -109.8     -73.9
  179     -66.4      76.7
  180    -181.4    -123.9
  181    -136.4      -8.9
  182    -171.3     -13.5
  183     108.1     137.9
  184     125.8     -54.3
  185      89.2     188.1
  186      86.2    -143.1
  187    -199.5    -149.5
  188     113.5     119.8
  189    -187.3     -93.2
  190     183.1      46.8
  191    -127.8    -136.7
  192       137      28.3
  193      58.5     -68.5
  194     192.5    -143.1
  195    -140.4      49.9
  196     -73.4      24.8
  197     -69.9      59.9
  198     198.2    -193.6
  199    -105.7     147.9
  200    -128.6     138.1
  201     155.1      66.7
  202    -197.7     -90.9
  203    -126.2    -152.1
  204     -48.8      73.8
  205    -119.2     118.1
  206      83.2    -199.7
  207    -118.5     -67.6
  208     -80.2    -134.2
  209     -80.7    -164.5
  210       3.3       -87
  211    -142.8      65.2
  212     -62.4     -21.9
  213      42.9       9.5
  214      66.8       105
  215     117.1        30
  216      54.6      56.1
  217     -70.5     164.4
  218      27.6     134.7
  219     -75.5      20.1
  220     143.2     -71.8
  221     157.9       -28
  222    -152.9     -11.7
  223     109.8     -23.2
  224    -119.4      57.5
  225      52.8     115.6
  226     -98.1      56.3
  227     141.1     -21.2
  228     -17.6    -156.8
  229     -19.4      -196
  230      41.9     -40.4
  231      44.2      81.2
  232    -115.5     172.4
  233      94.2       136
  234    -102.4      26.7
  235     -26.7       4.8
  236    -123.4    -178.6
  237     -71.1     113.9
  238      38.4    -180.4
  239    -169.2    -125.4
  240      84.9     107.3
  241      47.1     107.9
  242     -19.7       111
  243     138.2       9.6
  244     -95.6     189.7
  245     134.2     -29.8
  246    -156.5     -89.6
  247     155.9       161
  248    -117.4    -177.7
  249     -56.7     198.7
  250      60.5     140.8
  251      53.6    -197.9
  252      51.3     -45.8
  253    -108.9     151.6
  254     -66.4     -34.6
  255     -68.8    -133.2
  256     -89.7     -18.3
  257     102.7       111
  258    -157.1       164
  259      88.2     -61.1
  260      59.8      49.7
  261     -92.6      -2.9
  262     -95.7     -40.4
  263     144.7      91.3
  264      -117       3.5
  265     183.6     -67.6
  266      -123        95
  267    -188.7     174.5
  268      79.4     190.1
  269     154.3    -144.3
  270     -78.8     159.4
  271     109.7     156.3
  272      47.4     109.7
  273    -167.5     185.9
  274    -193.4     164.6
  275      -157     -89.3
  276     116.8     117.9
  277     116.3     -63.5
  278     169.2     -27.7
  279     115.8      56.6
  280    -167.7     176.3
  281     134.3    -120.7
  282    -179.9       170
  283     104.5    -152.8
  284    -114.4      54.8
  285      -159     -41.1
  286     -97.3      -2.3
  287      77.9     109.1
  288      98.8     182.9
  289    -137.9     156.1
  290     100.7     -75.4
  291      67.3      31.2
  292    -143.5     -48.7
  293     189.5       2.4
  294      95.7      75.9
  295       187    -196.2
  296     189.6    -136.6
  297     127.2     -55.7
  298    -124.4     108.6
  299    -195.9     -92.3
  300     -92.8     -63.2
  301      -114     156.7
  302      91.8       139
  303     -40.4    -146.8
  304     179.9     -44.8
  305    -170.6       7.6
  306      67.1     -81.6
  307    -161.9     -30.7
  308     -27.6     -30.3
  309     168.2     171.6
  310    -146.1    -139.7
  311      88.3    -157.5
  312     -73.5    -149.9
  313     -93.5     194.5
  314     -58.4     -83.4
  315     193.4    -193.8
  316    -106.2      -113
  317    -163.3     -92.9
  318    -185.3     -95.5
  319    -108.7    -120.5
  320     118.5      43.2
  321     -15.1      -111
  322     160.3      82.7
  323    -155.1     156.3
  324      70.3      -145
  325     -94.1     183.2
  326     -73.7     -22.1
  327     -37.5    -155.4
  328       127     184.1
  329      -171      59.9
  330    -171.2      -138
  331     168.2     155.2
  332     107.7      18.8
  333      -147      30.4
  334     -89.8        78
  335      21.8    -158.9
  336      -145     -74.1
  337      -8.4     111.3
  338     -52.8    -183.2
  339     -10.3     186.2
  340    -131.3     152.1
  341    -131.3     -61.1
  342     -92.2     143.8
  343     -35.2    -155.4
  344     -12.2     175.7
  345      63.8     -67.4
  346      60.2      75.4
  347    -163.2     -70.1
  348     123.5     107.9
  349     -92.9     -90.5
  350     -70.3     105.6
  351     112.7     153.8
  352    -157.7     -55.4
  353       125     -51.9
  354       107     -17.4
  355     187.2      15.1
  356      -1.3    -132.1
  357     -64.7     -97.2
  358     106.1     -64.8
  359    -137.2    -160.5
  360      17.8      -2.3
  361     192.8     -32.5
  362    -128.5     149.7
  363     119.9      67.9
  364      28.4      -7.1
  365       184    -110.2
  366     136.8        96
  367     -62.2      -4.3
  368    -154.4     103.6
  369      73.1      35.4
  370      31.8     104.4
  371     -35.6     -37.9
  372       3.6      72.2
  373     196.8     -98.4
  374     -58.9      -7.7
  375    -163.4     188.8
  376      38.8    -114.8
  377      10.1      81.8
  378      10.9     -59.3
  379       -49    -130.8
  380      22.2     -25.5
  381      -119      79.4
  382     -92.2      20.3
  383      83.7     107.7
  384     142.7      69.2
  385     136.3     -28.3
  386      -174       -31
  387      60.8     -91.6
  388     -60.6      -103
  389     156.8     -75.5
  390     -54.7      17.4
  391      79.1      14.3
  392     -15.3     136.1
  393     -77.5     -44.6
  394       -61     -33.7
  395    -124.2     196.4
  396      17.1      16.2
  397         8     -51.5
  398     131.5     112.4
  399     -50.9      -7.1
