    0      -3.9     159.6
    1    -179.9     -63.6
    2    -159.9     133.7
    3     -48.4      62.8
    4    -147.7    -138.6
    5    -138.7    -100.1
    6     -91.6     190.9
    7     176.5    -150.1
    8       151      48.9
    9    -144.7      25.1
   10    -117.9      11.5
   11     -77.8        92
   12      81.8       199
   13    -164.5      19.4
   14      14.9       -95
   15      -151      41.6
   16     189.2     173.3
   17     131.4     -47.9
   18     125.6     -64.8
   19       4.5      38.1
   20       5.7     119.4
   21        64     168.2
   22    -143.9     -53.4
   23     144.3     147.8
   24     134.6    -177.3
   25      -109    -147.8
   26     179.2    -158.9
   27     102.2    -147.9
   28     -17.1     -91.9
   29       2.3    -157.6
   30     156.6     104.1
   31    -189.6     -12.7
   32     -56.4      91.2
   33     165.1        95
   34     146.3     181.8
   35     169.9       133
   36      29.3      79.9
   37      19.3     197.9
   38    -139.2       -93
   39     -29.2    -148.5
   40     154.4     -73.7
   41      22.9     135.3
   42      74.7     -23.7
   43      62.9     177.1
   44      68.1      -172
   45      47.1     101.1
   46     -17.5    -123.7
   47     -24.8     154.6
   48     137.3     179.8
   49      21.8     163.4
   50    -193.3      60.2
   51     187.3      28.7
   52     179.2      -125
   53      -169     178.3
   54    -144.9     -25.5
   55      48.8    -116.8
   56     -55.5      57.2
   57      57.7     -45.7
   58      29.2     -64.7
   59       150     129.6
   60      49.7       122
   61     -20.4        66
   62     181.4      55.3
   63     -57.5    -153.3
   64     160.4     -31.9
   65      14.5     118.4
   66     123.6    -180.2
   67    -191.2     169.2
   68      23.8      99.3
   69      -185      60.9
   70        84     -86.1
   71     -16.8     -72.8
   72     151.5     -24.2
   73      14.6     151.3
   74      15.8    -101.5
   75       -78     -65.3
   76     152.5      -184
   77      22.4     -30.1
   78     154.6     137.1
   79     123.6     -70.7
   80     -84.1    -152.3
   81    -131.4      83.6
   82      26.4     -27.5
   83        -1     160.8
   84        44      -190
   85     100.2     -40.1
   86     -95.1     152.9
   87       192      30.5
   88     -65.6     -95.1
   89     125.5     131.2
   90     -79.7     -90.9
   91     149.6       180
   92     -86.5      -1.6
   93    -189.9    -191.8
   94      15.9    -119.3
   95     142.5      30.7
   96    -180.9    -127.5
   97     -77.8       -55
   98       -43      92.4
   99     134.8     -27.6
  100      33.3     126.8
  101    -172.6     152.1
  102       188     181.3
  103     -94.9    -197.4
  104     164.8     129.6
  105      34.4    -138.8
  106     -59.3    -127.4
  107      16.1    -184.4
  108     182.5      -180
  109      -9.7       139
  110     191.5       107
  111      35.6     141.5
  112      -2.1     159.1
  113     -74.3     151.1
  114    -130.1      16.5
  115       5.9     -64.8
  116    -102.4    -168.4
  117     -49.6    -123.5
  118     115.8     151.5
  119     -34.7      15.4
  120    -173.1     197.8
  121      -1.8    -128.8
  122     187.7     -42.9
  123     -82.6     154.1
  124     -78.2      94.3
  125    -177.3      82.5
  126    -179.9    -100.2
  127    -148.3      -185
  128    -107.6      86.4
  129    -157.8       113
  130      31.8      -156
  131    -185.7     -56.9
  132      55.5     169.3
  133      35.3     134.8
  134     -16.8      78.5
  135      27.8    -196.5
  136      17.1     119.6
  137      86.2      53.4
  138    -115.6     193.2
  139    -138.4      70.6
  140      -194        97
  141     -20.3     121.6
  142     -46.8    -194.6
  143      52.4     166.9
  144    -144.4    -104.1
  145      -153    -195.8
  146    -177.7     -63.2
  147     174.6    -147.5
  148    -162.2      46.8
  149    -139.3      91.2
  150      -2.2    -160.2
  151     160.3    -136.2
  152     -55.3     -32.1
  153       180      62.5
  154     166.6      73.8
  155    -130.3       2.7
  156    -177.7     -33.3
  157     146.2     101.9
  158     -45.7    -167.7
  159     -88.4    -124.5
  160     -47.1    -108.3
  161     -71.7     160.7
  162     133.1     119.2
  163     113.8    -117.7
  164      -112      33.8
  165    -182.3    -127.7
  166    -120.4     -24.8
  167      42.8      55.8
  168     131.1    -122.2
  169     -26.2       116
  170      82.2     154.6
  171     -25.2     -49.6
  172      70.4     -95.9
  173    -180.4      31.2
  174    -100.2    -148.1
  175     -84.3     -18.6
  176       -38      40.3
  177    -113.6    -118.9
  178     168.8        78
  179    -128.6    -186.3
  180     162.1     -37.5
  181     109.8     167.3
  182      61.1      87.3
  183     168.1    -198.5
  184      10.4      47.2
  185     174.5     193.6
  186     192.1      53.7
  187    -177.1    -123.5
  188     -37.4     172.7
  189     -90.4      79.8
  190     178.6      -2.3
  191     163.6    -112.1
  192     173.2     -29.4
  193     134.4    -173.6
  194    -153.9     162.5
  195      99.5     190.7
  196     -71.5     127.5
  197     -46.7    -172.1
  198      87.3      40.9
  199    -158.6      85.2
  200     -70.7     -63.7
  201     101.2      37.5
  202     169.3      51.6
  203    -127.8       106
  204    -176.5    -101.7
  205     -61.3     180.8
  206    -108.3      -134
  207     -33.2     160.7
  208     189.5     174.2
  209      97.8    -179.9
  210     194.6     184.6
  211    -137.3     -80.5
  212     168.3      85.8
  213     -23.2    -131.8
  214    -184.2     -36.5
  215     -19.6    -145.9
  216     -53.2    -132.1
  217      85.7     -47.4
  218      -0.6    -108.6
  219     193.5     126.4
  220      90.4    -130.6
  221      41.8      29.6
  222      53.1     115.5
  223    -150.9       128
  224     126.1         5
  225    -185.5    -151.7
  226       156    -181.5
  227      -162    -130.9
  228     -25.2    -142.8
  229    -178.7    -135.2
  230    -183.4    -154.9
  231     -84.8      17.5
  232    -165.6    -172.8
  233    -127.7       6.1
  234     -19.3     -21.4
  235      70.1     187.9
  236       113     136.7
  237     166.1      -116
  238     -11.1      67.3
  239       -53    -119.5
  240    -189.1      79.7
  241     -64.9      59.6
  242     184.7      -199
  243     -85.1      70.7
  244       154     -76.2
  245     140.5     -42.9
  246     172.2     -61.9
  247     188.5    -152.5
  248    -123.6    -138.1
  249    -182.4      27.8
  250     -76.3     181.4
  251      -2.1     103.1
  252     153.4      13.6
  253      71.6     164.4
  254       138     105.1
  255       9.4    -128.4
  256     -15.9    -122.9
  257     122.5     -35.2
  258    -152.2     -68.4
  259      -4.5     118.2
  260      24.3      30.1
  261    -199.6      46.5
  262      77.6     -42.6
  263     155.4     178.5
  264      69.2      82.3
  265      90.9        10
  266     -48.4    -169.8
  267        85        47
  268     186.4      76.2
  269     130.7    -146.2
  270      51.6      75.2
  271     197.8     116.8
  272    -101.3     138.8
  273    -147.8      37.7
  274    -175.5    -128.1
  275      -5.6       -32
  276    -183.2     -16.6
  277    -120.3     197.2
  278    -159.7    -119.6
  279     -16.3    -192.5
  280     121.9    -138.8
  281      -126     107.5
  282     100.1     118.1
  283      52.4     157.4
  284    -100.8     162.6
  285     128.1      97.6
  286      -6.5      86.2
  287      -114     194.4
  288       120      68.7
  289      12.2     114.2
  290     -93.3     -53.6
  291    -161.4     -61.1
  292    -125.2      53.3
  293      69.6      -164
  294      80.4     -52.8
  295    -146.5    -106.1
  296    -143.8    -166.1
  297     161.1    -162.4
  298     -82.8     100.8
  299      33.3     134.2
  300    -108.5     173.9
  301      61.2    -196.4
  302     139.9     109.4
  303      60.6      45.2
  304     125.8     133.5
  305       103     192.8
  306     198.9     -58.2
  307    -132.3     -87.7
  308    -145.6     171.8
  309    -126.5     151.9
  310     130.4    -139.9
  311     -42.5     -40.2
  312       6.1      -102
  313     158.9        80
  314      63.7    -103.8
  315     173.5      40.1
  316      75.5      73.3
  317       140      42.4
  318     179.7     -21.7
  319     120.3     -27.7
  320     -93.6        62
  321    -162.4      34.6
  322       -82     -92.6
  323      33.6       132
  324       -76     -66.4
  325    -192.3      96.7
  326      35.2     -15.9
  327     100.9    -110.4
  328    -181.9      13.9
  329      86.6    -122.9
  330     -87.4      -115
  331    -168.6     -99.9
  332      75.9    -113.2
  333     -13.2      46.7
  334       114     189.3
  335    -123.3    -158.5
  336     -35.3      45.8
  337     -58.5     -36.8
  338     193.2     155.1
  339     -98.9       4.3
  340     -35.5     195.8
  341    -199.3     -15.5
  342     152.5     146.7
  343     101.3     -69.7
  344    -148.6    -195.8
  345     -23.9      33.6
  346     -50.3     -89.8
  347     -22.3     101.9
  348      29.9     102.7
  349    -163.6      12.1
  350    -143.3     -99.1
  351     -46.3      -119
  352     115.9       -61
  353     152.6      64.4
  354      66.7      59.2
  355      -153      98.1
  356     -30.6    -121.8
  357      -6.3    -108.1
  358     -47.8      37.7
  359       189    -108.7
  360     -22.4     154.3
  361      71.5     -83.2
  362     173.1      77.4
  363      -4.4     195.6
  364     187.3      71.9
  365     136.2    -103.6
  366      34.1     134.4
  367     187.7    -118.5
  368      -112      57.9
  369      21.5       187
  370      92.6      56.5
  371      -139     144.8
  372      44.7     -37.3
  373     -59.7      58.2
  374      16.9       9.7
  375    -193.5     -55.3
  376     180.7      11.8
  377      29.6    -143.5
  378      93.4     -45.4
  379      81.2      93.7
  380     110.1       7.9
  381       -54      -180
  382     -15.2     173.5
  383      27.7      -3.7
  384     121.2     -18.3
  385     111.1     -58.1
  386       -62      46.3
  387     -54.9    -161.9
  388       8.8      -106
  389    -193.5      84.9
  390      41.5    -122.5
  391       9.2    -175.2
  392     157.3     -12.9
  393     119.6       -55
  394     -66.3     172.5
  395      42.5      71.4
  396    -126.8     186.4
  397     138.3      65.9
  398     160.2     -35.6
  399     134.9     -58.9
