    0      87.2      95.2
    1     126.4    -103.2
    2    -214.7      97.9
    3        -4       186
    4       179    -120.4
    5      98.2     -92.5
    6      -2.8       6.4
    7     187.3     143.5
    8     107.2      92.9
    9     -78.3     -83.4
   10    -182.4    -130.5
   11     198.1      81.3
   12      42.1    -173.5
   13     -69.8    -171.1
   14     -45.7    -117.3
   15     101.2      41.7
   16       -29     121.7
   17    -184.3     184.9
   18     -64.9    -194.7
   19     214.5    -164.4
   20     -41.4      51.2
   21      79.8        49
   22     -35.2     110.1
   23    -108.3     -17.3
   24      15.6      -199
   25       -44     105.1
   26     149.5    -171.1
   27     -46.8    -205.2
   28      24.1       0.3
   29    -131.1     208.1
   30      -222      54.3
   31    -203.5     220.2
   32     165.6     -13.2
   33     -83.2       -96
   34    -205.8     105.8
   35     -60.9    -201.5
   36      62.4     -63.1
   37     202.3     125.6
   38     -50.5    -200.9
   39     137.6    -142.6
   40     213.7     139.2
   41    -124.6      -208
   42      44.4     204.3
   43    -198.1     131.5
   44     -95.1     100.4
   45    -184.2    -143.5
   46    -119.5     202.9
   47    -189.7      38.8
   48     100.2       171
   49      -4.1      18.5
   50     165.4      46.6
   51     -99.8    -212.1
   52     119.1    -133.3
   53      35.8     195.1
   54    -110.1    -181.8
   55     146.7     -25.7
   56     193.5        55
   57    -186.5      32.7
   58      32.2     -34.2
   59    -190.5     111.5
   60      48.2      43.9
   61     131.9        43
   62     150.9    -123.9
   63    -180.5     131.2
   64    -222.2    -119.3
   65    -142.2    -117.2
   66     -38.2    -135.1
   67       -54       -77
   68    -116.6    -207.3
   69    -163.7      49.4
   70      74.3    -137.9
   71      50.8        50
   72      21.3     -90.2
   73     141.8    -175.4
   74      96.9     169.7
   75      55.2      56.8
   76      47.7    -182.2
   77      72.4     -21.4
   78     -67.1    -188.2
   79       -37     192.9
   80     223.8     184.4
   81        -7     -70.8
   82    -209.8        92
   83     -61.1    -167.3
   84       132     184.7
   85        98     110.3
   86    -202.8     -80.5
   87      -4.3     207.2
   88    -110.9     135.1
   89     125.9     139.1
   90     124.2     -73.7
   91     184.3    -200.3
   92        71       -73
   93      26.1     -48.1
   94    -184.2     145.6
   95     -54.7    -122.4
   96     -98.9     -19.3
   97    -214.1    -123.9
   98     159.5     209.2
   99     203.2       0.2
  100     -24.5    -209.2
  101     208.7      85.8
  102        47    -174.9
  103     141.2      78.4
  104     115.3    -111.6
  105     165.3    -110.5
  106     -97.7     -16.3
  107    -143.8      26.2
  108     -36.1      50.6
  109     172.3     -14.1
  110      -157     -36.8
  111     -66.5     140.9
  112      87.1        30
  113     203.2      71.8
  114     136.7      -8.5
  115     181.1     -29.3
  116      -5.4       117
  117    -205.4    -134.4
  118       -78     155.7
  119     213.1     150.2
  120    -200.1     189.3
  121       1.6     -36.9
  122      16.9      40.3
  123      88.2      36.4
  124     145.9     -62.6
  125        32    -162.6
  126       -40     -11.5
  127     108.2     104.4
  128     -55.1    -181.2
  129     209.4     150.7
  130      34.7     -43.7
  131    -223.1     143.2
  132        -0      51.3
  133      63.7     -30.4
  134     214.8      -9.9
  135     -48.7     -28.7
  136     -38.8    -112.9
  137      62.3      85.3
  138      60.1      88.2
  139     119.5     -15.6
  140    -181.2    -145.5
  141    -187.9    -106.6
  142      14.1    -104.9
  143     216.2     191.7
  144     107.7    -200.5
  145       -97     -70.9
  146      68.5      18.8
  147      -195     -21.2
  148     -71.7    -104.4
  149     222.2     203.7
  150    -172.4      44.8
  151       5.4     -55.8
  152     -48.8     141.4
  153       117     163.6
  154     -26.4     -34.3
  155      99.5     -17.5
  156     102.2       139
  157     -42.2    -173.4
  158     202.9      98.8
  159      18.4    -111.6
  160      -9.4      46.7
  161      68.6    -146.5
  162     -93.1     -59.7
  163     197.7    -207.3
  164    -157.8      21.9
  165     161.9     107.7
  166    -194.9     -13.2
  167     143.4     -18.4
  168     144.3     -58.3
  169     173.2    -160.9
  170      49.6    -195.1
  171     191.4     100.5
  172       1.8    -146.4
  173      -192     -60.1
  174     177.6     -34.7
  175     185.6     -17.8
  176      30.8    -191.1
  177     -63.3     104.1
  178      16.8       224
  179       5.1      -142
  180     -69.5     -23.8
  181      12.9    -148.5
  182     197.6    -223.3
  183       147     -45.9
  184     144.5     139.4
  185      28.4    -168.6
  186      33.8      32.3
  187     124.5     -81.3
  188      -6.7     -76.4
  189    -164.1    -177.8
  190     -60.2      50.3
  191      58.5    -125.5
  192    -104.5     196.5
  193      -128     147.4
  194    -128.7    -124.9
  195      83.7     -42.3
  196      59.6    -177.5
  197     143.4      -213
  198      61.4     117.3
  199    -188.1     138.2
  200     129.9      -136
  201     166.2     145.7
  202      22.2      23.9
  203      90.1    -128.8
  204    -217.6      -0.3
  205    -143.5     140.3
  206    -159.1    -140.4
  207    -112.1    -178.9
  208    -174.2       150
  209      28.8      79.6
  210     189.1     -15.2
  211     -40.2      -167
  212     222.5     142.7
  213    -184.7        -0
  214     147.1     213.3
  215      -156    -127.3
  216     -43.1       107
  217     -35.8      73.5
  218      12.7      -102
  219    -154.4     -97.9
  220      96.7    -196.9
  221     -77.2     -48.8
  222     134.3      88.9
  223     -61.3      35.6
  224       189      23.9
  225     -96.2     179.2
  226    -200.7     146.4
  227      69.5        79
  228      89.6      -203
  229    -127.3    -137.6
  230       211      11.4
  231      67.2      -202
  232      55.6       138
  233     -66.1       -16
  234     -94.7      66.9
  235      58.2     -86.5
  236      -2.2      20.7
  237    -122.1    -162.5
  238      79.4       -64
  239      41.6    -206.5
  240     134.1    -205.3
  241     127.6      10.5
  242     120.7    -200.9
  243     -32.7     -95.2
  244     -94.3     -44.9
  245      53.7      -176
  246     -88.4     200.3
  247    -128.9      64.9
  248        86     192.3
  249     -71.1     -19.3
  250     -50.2    -107.2
  251      65.3     213.5
  252      17.5      65.5
  253    -197.3     116.3
  254     181.6    -211.5
  255      41.5     120.5
  256    -167.5     -43.1
  257    -223.4     215.9
  258    -213.7      20.2
  259     117.4    -178.5
  260      41.5      65.2
  261    -113.7      68.7
  262     153.3     -29.1
  263       3.6    -114.1
  264    -165.5     127.4
  265      40.6     -99.2
  266    -149.8     -72.1
  267       114     172.2
  268     -82.5    -131.6
  269      16.5     -57.6
  270     -47.6    -119.8
  271    -202.9     208.2
  272      29.1     178.9
  273     -42.5    -172.4
  274      19.1     -59.2
  275     102.2    -149.8
  276      97.6      93.3
  277      32.5      66.3
  278     -49.5     151.8
  279    -117.5     223.6
  280     109.2    -129.1
  281     150.7     211.8
  282     108.4     122.4
  283      17.8      13.7
  284      33.4    -121.5
  285     180.2      -3.4
  286     149.1    -157.1
  287      77.2     102.1
  288    -196.7     199.3
  289     222.7    -147.8
  290     151.8    -117.7
  291     -34.2     -29.9
  292    -199.4      75.2
  293      48.4     -83.2
  294      11.6      73.7
  295    -164.5     206.7
  296      52.2    -131.8
  297     -69.3     219.1
  298    -215.6    -175.4
  299      51.9     -79.8
  300     -69.2     166.7
  301     192.8    -202.2
  302      87.2      50.3
  303    -127.3    -194.1
  304     152.2    -173.5
  305     -85.2     133.9
  306    -132.6      11.8
  307     214.7     118.2
  308    -100.6     116.9
  309       176     -98.1
  310      51.1    -190.5
  311     204.6    -182.3
  312    -172.3     186.9
  313     186.1    -142.1
  314        80      20.8
  315      57.6      31.7
  316     197.5       -22
  317     191.4     -57.1
  318    -119.8    -173.9
  319     -19.8     177.3
  320     -41.1    -165.1
  321     -41.6    -196.8
  322        95    -105.4
  323        25     189.6
  324     -75.6     -53.4
  325      -0.6      37.6
  326     133.4     173.8
  327       1.4    -106.7
  328     173.9      68.3
  329     168.4     141.6
  330    -140.8     199.1
  331    -109.8      -1.7
  332     203.1     -28.5
  333     103.1    -133.4
  334      -8.6     132.1
  335    -133.3    -208.2
  336      24.7     173.2
  337     171.9     -35.7
  338    -126.7      -162
  339     -68.8      37.5
  340     -19.5    -189.9
  341    -211.4      73.7
  342    -223.1      35.3
  343      43.8    -115.9
  344       163     168.1
  345    -184.7      25.6
  346     127.8     141.7
  347      -133    -123.8
  348    -108.6     -19.9
  349      92.9        82
  350    -109.7     -16.1
  351     -91.1      -129
  352     -67.4     -36.2
  353     164.1     111.6
  354     -64.7      -4.9
  355      33.5       -79
  356    -149.7      23.4
  357      51.8       -58
  358       194     -99.1
  359    -180.5      94.6
  360    -110.9    -132.5
  361     198.3      -8.7
  362       1.9     -74.9
  363    -128.6     127.5
  364    -220.2     -93.3
  365     115.9     -60.3
  366    -155.8      35.4
  367      49.7    -197.5
  368    -160.1     191.1
  369    -218.7     -78.5
  370      19.9     -82.8
  371      -1.8      57.1
  372    -109.6      76.6
  373     190.8     204.4
  374    -188.9     123.2
  375     174.4    -108.5
  376      20.4     -37.7
  377     -61.1      -194
  378    -156.6     -80.8
  379    -199.5    -171.7
  380      64.3     172.4
  381       -83    -131.2
  382      22.7    -109.8
  383    -202.3    -172.1
  384      29.8     117.6
  385       4.1     148.3
  386     216.1    -102.5
  387     -46.5       173
  388     135.6     -22.5
  389    -154.2    -187.2
  390      92.7       4.9
  391     176.3     -56.6
  392       7.1     -26.2
  393     136.7    -132.9
  394       -84    -107.5
  395      13.7    -195.4
  396     170.3     -75.9
  397     -72.6        32
  398        49    -105.9
  399      19.8       147
  400      15.4     -28.1
  401    -188.8     -63.6
  402      66.8      75.3
  403      41.9     -46.2
  404    -149.6    -195.7
  405    -209.2     141.1
  406     165.2      38.9
  407    -197.1       -19
  408    -126.6     -58.5
  409    -110.8    -142.1
  410     -62.1     -92.9
  411     -11.7     -55.4
  412      97.6     170.8
  413     -79.9    -121.8
  414    -103.2    -209.2
  415    -195.1      21.2
  416    -116.1      52.4
  417       211     -43.8
  418     -87.2     -12.3
  419     -28.4     -61.4
  420     217.6     152.8
  421     141.9        57
  422     -46.9     115.8
  423     -57.9     140.7
  424     217.4     -25.1
  425    -124.1      91.8
  426     -23.1    -128.8
  427     111.6      94.5
  428     -28.1     199.6
  429     -93.9     -65.7
  430    -110.7      66.1
  431      47.6      14.1
  432    -151.6    -168.4
  433     210.1     164.1
  434      -2.8     -85.9
  435     -87.2     176.5
  436    -142.2    -102.9
  437     -90.9     -45.6
  438     178.6     -27.6
  439     151.6      69.3
  440     -28.7    -194.5
  441     118.5     168.1
  442       2.9     -12.8
  443    -111.1      58.3
  444      44.8    -184.6
  445     134.4      13.1
  446      -196     155.7
  447    -135.1     199.5
  448    -199.8       196
  449       -51    -197.8
  450      16.8     -20.3
  451        50    -221.3
  452     205.8     221.1
  453     132.5     -38.7
  454     122.3      87.4
  455       3.3    -180.7
  456     -14.8     130.8
  457     -19.6    -131.8
  458    -112.2    -144.8
  459     183.4      46.1
  460    -202.1    -210.9
  461     196.3     109.5
  462     216.3    -210.7
  463     179.4     160.8
  464     204.3      -138
  465    -193.7      87.2
  466      18.6     155.7
  467     133.3      54.1
  468     134.1     138.8
  469      -150     -60.6
  470    -137.4    -110.5
  471     -21.1    -150.7
  472    -108.6     -73.8
  473     -40.8      51.6
  474    -146.3    -182.6
  475      80.6      -222
  476     183.1      65.8
  477     -79.4     -47.7
  478    -188.4    -113.4
  479       136    -112.3
  480    -139.9    -143.8
  481     -49.5     177.2
  482     -48.5    -188.8
  483     -72.9        30
  484     -14.5      78.2
  485     129.8     -67.3
  486    -172.1      -2.4
  487     126.2       128
  488      -104      29.3
  489    -105.6     -32.6
  490      24.3      62.2
  491      23.6    -171.9
  492      37.9     212.5
  493    -177.6     -99.6
  494    -134.5    -130.5
  495    -210.4     223.9
  496     -67.4       -69
  497    -107.8    -139.3
  498     114.3     -46.3
  499     105.7      35.5
