    0      54.7      64.3
    1     196.1      86.9
    2     163.3     -16.3
    3      20.8       9.1
    4       154     181.2
    5     149.4      44.9
    6      -9.3     -98.7
    7    -162.5      32.3
    8     -48.1      52.7
    9    -136.1    -108.1
   10       0.8       1.5
   11     106.6      10.1
   12      37.5    -217.9
   13     137.4     183.3
   14     -14.8       120
   15     104.2     -60.6
   16    -221.9      58.5
   17    -157.2     137.3
   18      -4.9    -181.5
   19     209.6     146.8
   20      71.8     170.1
   21      94.8     -81.2
   22     209.7     121.5
   23    -171.5     -95.9
   24    -115.7    -117.5
   25     -39.5      66.7
   26     -34.5     158.8
   27    -148.6     -91.3
   28       9.7    -195.9
   29    -157.6    -141.5
   30     -23.6       -89
   31    -207.6     114.7
   32     167.4      -208
   33     -10.9     -14.9
   34     131.2      99.1
   35     -87.8        85
   36     186.3    -122.4
   37       -42     131.2
   38      33.5     114.3
   39    -187.5        71
   40     -97.8     128.5
   41       -74     -29.3
   42      47.1    -187.8
   43     223.2     132.1
   44       6.2    -105.7
   45    -183.7      -5.2
   46     156.7    -206.3
   47     -83.4     -16.1
   48    -186.5        20
   49    -174.8     -68.7
   50    -219.7     175.5
   51    -153.5      21.7
   52      16.1     -35.7
   53     108.8     132.8
   54      -122      87.5
   55     175.1     -63.9
   56     115.7     124.9
   57      77.7     107.9
   58     189.4     138.7
   59      43.1      -151
   60     -55.7     -35.7
   61     -12.1      21.8
   62     109.2    -213.3
   63      85.3     -62.7
   64    -102.8      -0.2
   65    -100.7    -212.9
   66      69.1     -84.2
   67      72.8    -111.4
   68    -122.6      41.1
   69      34.9    -219.9
   70    -162.3    -129.5
   71     195.7     -19.2
   72      88.5     -52.1
   73    -149.1      44.6
   74      13.9     145.3
   75     162.2     202.3
   76      91.6       220
   77      -148     223.2
   78        -9     -21.5
   79     145.2      99.3
   80     157.7     178.6
   81    -122.1     217.5
   82      10.2     153.9
   83        -7    -200.4
   84     -11.2      12.6
   85     134.2    -216.2
   86     132.5    -189.3
   87    -160.1     -27.4
   88     182.7     -32.2
   89      38.9     200.6
   90     164.3    -195.1
   91    -122.5      -171
   92     169.3      -183
   93    -186.6     -55.5
   94      85.4      79.5
   95     180.7    -119.8
   96    -212.4     -46.4
   97    -110.8      53.8
   98      86.3       1.8
   99     143.1      50.5
  100      22.7      77.6
  101     -77.6     -83.4
  102     212.8    -122.4
  103     207.3    -139.3
  104     214.2     -47.2
  105       105      58.3
  106      66.3      56.6
  107        68    -212.3
  108    -199.1      -2.9
  109    -157.1    -166.7
  110     -94.5    -129.8
  111      66.4     216.4
  112       122     -87.9
  113      75.4    -123.1
  114      10.2     -14.5
  115     -46.7     223.3
  116       1.5    -167.2
  117    -174.6       -91
  118     102.5     110.8
  119     -52.5    -223.4
  120     -99.2     -34.9
  121     -25.5     -46.3
  122     167.7     117.3
  123      58.8     -24.5
  124    -144.1        56
  125     -74.6      47.3
  126     -13.5      97.2
  127     -85.1     -13.7
  128     157.9      39.3
  129       145      -222
  130      68.4      -195
  131     -12.5      81.8
  132    -150.4      64.9
  133      -165    -102.5
  134       -48     171.6
  135     187.9      33.6
  136     206.6     -87.1
  137      34.7     180.9
  138     145.9       170
  139      -139      23.2
  140     209.7      31.5
  141      59.5    -193.9
  142      93.6    -215.2
  143      76.6      42.2
  144       138     166.4
  145    -179.9    -193.7
  146    -222.3     126.2
  147     151.8      19.9
  148    -158.6      62.7
  149     -43.1     -23.1
  150      37.4    -208.3
  151        54      -217
  152     205.3      -1.4
  153    -209.2      95.9
  154    -195.2      19.7
  155     171.5     191.6
  156     191.7    -192.7
  157    -189.9      79.3
  158     117.8    -180.4
  159    -203.9      74.4
  160     207.4     -29.3
  161     181.2     -31.2
  162     124.6    -106.9
  163     142.3     165.3
  164     153.4    -143.1
  165       211     199.8
  166    -135.1     116.4
  167    -194.4     150.2
  168       217    -177.7
  169     106.3     -90.9
  170     -29.9     -10.6
  171     133.5      27.5
  172     -70.8       9.1
  173     100.1       2.4
  174      76.5    -185.9
  175      -100     -44.6
  176     -35.1    -128.7
  177      82.4    -217.5
  178       -18     -88.2
  179      -107       -68
  180     -32.1     220.2
  181       183     128.7
  182     -37.4     121.3
  183       -60     202.6
  184      15.6     174.2
  185      66.3    -211.7
  186    -198.8      24.1
  187      23.9     155.9
  188    -100.1     212.7
  189      74.1      13.2
  190     112.8    -101.3
  191     108.9     187.6
  192    -192.5     133.6
  193       184      66.8
  194     140.4     162.2
  195      23.9    -188.2
  196     161.4     -20.6
  197     -79.3     180.2
  198      88.7     195.8
  199    -151.1      85.5
  200       173    -101.3
  201     114.2    -140.2
  202       -72     138.7
  203     -90.2      39.7
  204      34.9    -160.3
  205      -213      59.2
  206      47.8      -174
  207     -66.8     111.1
  208      34.2     -27.2
  209    -183.5    -193.4
  210     172.6    -201.7
  211      49.2      30.7
  212     168.4      47.3
  213       -66      -167
  214     127.4     -96.6
  215      57.8     126.4
  216    -180.9     -74.2
  217    -188.7     207.7
  218     210.2     -29.7
  219      96.4     219.5
  220     167.9       -50
  221     203.6      45.9
  222    -171.3    -133.6
  223      17.6     144.5
  224     -50.3      -206
  225       116       185
  226    -222.9    -163.9
  227     168.8     100.3
  228     221.2    -161.6
  229    -149.4    -132.3
  230      88.8     221.7
  231     -13.7     -61.6
  232    -222.2       136
  233      76.9       -22
  234     185.3     121.7
  235    -217.5      74.4
  236      34.2     105.3
  237      62.7    -162.8
  238     -23.3     -87.6
  239     -99.5      -7.9
  240     105.1    -151.4
  241      -7.1     103.2
  242     122.7      17.5
  243     -75.3     162.7
  244       6.3     -42.3
  245     208.4     126.8
  246     109.2       -42
  247     187.8     213.1
  248    -120.9    -192.7
  249      52.2      66.9
  250     -34.9     -77.9
  251     197.3      61.2
  252     167.2     161.3
  253       -91     150.4
  254      -205     -73.5
  255    -193.5     -11.8
  256      57.3    -214.2
  257     163.5     212.3
  258      -184     154.6
  259      -6.9      93.6
  260       8.1     -40.2
  261       215     -36.9
  262       2.7      -218
  263       110      31.7
  264    -145.2    -143.9
  265    -211.4     -15.6
  266    -212.8     114.4
  267     119.8     -77.2
  268     106.3    -180.4
  269    -146.5    -130.7
  270      56.7     -58.9
  271     198.2     201.2
  272     161.1      -3.2
  273        14    -222.6
  274    -170.2     129.3
  275       -56       -49
  276     164.9     141.4
  277     -11.6        31
  278     157.4       -15
  279    -113.7       1.6
  280      -213     148.6
  281    -200.7      94.8
  282      15.3     167.5
  283     -88.9      31.9
  284       189     -27.8
  285      20.8      75.5
  286      -131      58.9
  287     -15.9     -14.6
  288    -222.4    -177.2
  289    -159.2    -186.4
  290     -81.3    -106.4
  291      33.4     -25.4
  292    -130.7     197.4
  293     108.3      47.3
  294     191.6      32.5
  295    -111.6      16.3
  296     107.5       -51
  297     163.7    -175.9
  298      -205      68.5
  299     170.2      47.5
  300     206.7      12.7
  301     101.8      16.5
  302    -190.9       4.1
  303     102.8     221.3
  304     -38.4    -204.9
  305     -45.8       -50
  306     -36.7     -82.5
  307    -140.6     138.4
  308     207.7     116.3
  309    -175.4     134.5
  310    -150.6     -91.9
  311    -170.3     150.9
  312    -193.8     159.5
  313      79.1     -99.7
  314     190.2    -125.7
  315     -57.9    -189.6
  316    -147.2      76.7
  317    -198.8      -206
  318     132.1      19.4
  319     -61.3     179.1
  320      -122    -157.1
  321    -217.6     221.7
  322     -29.7      -155
  323     154.1     150.2
  324     -71.6       181
  325     192.9     -74.8
  326      -103     113.2
  327     109.9       215
  328      15.1     184.4
  329     100.7     113.7
  330     150.3       160
  331      -146    -208.5
  332      66.7     146.2
  333     181.9     -84.4
  334    -124.7     -30.9
  335      10.5     207.3
  336     -62.2     189.4
  337     111.7     173.8
  338      72.5    -161.9
  339      95.4    -100.2
  340     -78.1      72.1
  341      43.2       -94
  342    -117.5    -124.7
  343      22.5     199.9
  344     -23.9     169.8
  345     -98.1     212.4
  346      95.1    -221.6
  347    -125.3     195.6
  348    -102.1      48.8
  349      80.7     -49.2
  350      -6.2    -212.1
  351     178.7     -59.9
  352         6       7.9
  353     -49.5     205.4
  354      80.4     128.7
  355      -4.6     -92.9
  356      84.7     212.5
  357      11.1      73.6
  358     -71.8    -164.1
  359      -5.1    -169.2
  360     177.1     108.2
  361      65.9     -97.7
  362     122.3    -107.3
  363     211.5      65.7
  364      89.8     -93.8
  365     140.3    -124.6
  366    -223.3     -71.8
  367      93.8      90.1
  368    -150.7     109.6
  369     113.1    -222.3
  370     -69.2     122.8
  371     -43.8     -21.9
  372       215     -25.1
  373    -149.4     -65.4
  374    -165.9    -189.6
  375    -203.1     -88.7
  376     112.1    -162.4
  377      -154     191.7
  378       7.5     -56.3
  379     -34.7     -29.5
  380     -56.2     134.2
  381     121.6      70.9
  382     -16.7      16.4
  383      92.5     207.4
  384      32.8    -192.2
  385      83.6     101.8
  386     134.3     192.5
  387    -130.2     100.4
  388      13.5     -78.1
  389    -222.6    -150.5
  390     -25.4     132.4
  391    -116.2      82.6
  392      72.9     -61.7
  393    -146.4    -193.3
  394     100.4    -109.5
  395    -180.8     212.9
  396       7.3      98.5
  397    -200.7     -19.1
  398     154.6     197.1
  399    -146.9      24.5
  400     127.4      53.6
  401    -191.4     106.7
  402     -16.5    -116.3
  403    -133.8      -3.9
  404     -21.6      14.4
  405      21.3       137
  406     -46.3    -138.6
  407      53.3     168.1
  408    -194.6     -59.4
  409    -182.1     119.3
  410     -19.3     210.1
  411    -201.8     -66.2
  412    -166.2     -93.2
  413    -141.7     -96.9
  414       -42    -211.3
  415     188.4     -96.3
  416      53.9    -147.6
  417     144.1      23.6
  418    -206.7     156.3
  419    -134.4      16.9
  420      62.2        59
  421     -69.9     177.7
  422     -50.4     -81.3
  423    -107.1     173.1
  424    -146.3     116.6
  425     -69.7     219.7
  426    -197.9     105.4
  427     165.4      -200
  428     222.6     -39.1
  429     101.3      92.9
  430      82.5     -28.3
  431     -91.3     -58.6
  432      83.4    -152.7
  433     168.6      41.5
  434       4.1    -199.5
  435      25.9    -199.3
  436     119.4     156.6
  437     209.5     206.2
  438    -181.5       -48
  439     124.2      -163
  440     215.6     136.7
  441       -52        52
  442    -155.9     193.4
  443      77.9     212.4
  444      83.2      60.5
  445    -102.8    -131.8
  446      -0.7     204.6
  447    -145.2     -32.1
  448     -59.3      79.6
  449    -129.7    -140.4
  450    -161.2     -83.9
  451    -152.8      63.5
  452     -93.7    -194.3
  453    -212.5     -32.9
  454      -9.4     126.7
  455     -85.3     -22.7
  456      -105       -35
  457      90.3     -33.7
  458      64.6    -182.9
  459    -173.4     -38.1
  460        19    -148.6
  461     -27.3    -151.6
  462     201.7      15.9
  463       209      -4.3
  464     148.7     -11.5
  465     147.6      31.1
  466       -10    -118.9
  467     -36.4     -89.1
  468     -22.6     143.2
  469    -154.3        59
  470       126    -217.8
  471      13.9    -198.8
  472      37.9    -140.2
  473     142.5    -177.3
  474      99.1     181.5
  475     -59.4    -186.7
  476      87.4     169.2
  477     172.6     163.1
  478     -35.3      -100
  479      48.1       219
  480    -211.6     203.2
  481     120.6       171
  482     -67.7      39.6
  483       -97       -25
  484      -107     -88.2
  485    -211.9     142.5
  486      10.8     120.1
  487      65.4        42
  488     -99.9     -74.7
  489       -96    -112.7
  490     157.4    -126.5
  491      -157    -182.6
  492    -200.1     -96.2
  493     -92.2       4.1
  494      33.5     -26.4
  495      30.4     118.3
  496      82.7    -144.9
  497    -180.2    -147.7
  498     162.4     -90.5
  499    -120.4     173.5
