    0     115.6       3.8
    1      59.1     -35.3
    2    -125.5     173.1
    3         6     138.9
    4      95.3    -156.7
    5     -74.8      -222
    6      95.2     125.6
    7     -34.4    -141.6
    8      64.8    -177.1
    9        -5      76.8
   10     104.4     -55.7
   11      -0.5     169.2
   12     -94.6      13.1
   13      16.2     -52.9
   14      42.6    -153.4
   15    -221.4     191.5
   16    -205.1       100
   17    -173.3        52
   18      77.7      23.4
   19    -217.7    -188.5
   20     131.7      58.6
   21      21.1       184
   22     134.1     108.3
   23     201.5    -162.1
   24     172.1     210.5
   25       -14    -215.4
   26     125.4    -176.3
   27    -103.2     196.8
   28      -141     218.2
   29      22.3      87.8
   30    -205.3     -93.7
   31      -106     200.3
   32     -85.5     150.2
   33     -60.1    -175.7
   34     -43.9     176.9
   35     214.2     -10.6
   36     196.6        35
   37     -51.2     164.9
   38       207     130.3
   39    -103.1      18.6
   40     -95.9     143.1
   41    -186.3      88.3
   42    -167.3    -195.1
   43     214.6       -77
   44      77.3     204.3
   45    -143.2        93
   46     111.7      36.5
   47    -120.4     -93.7
   48    -117.4    -198.2
   49    -223.8       -83
   50     -44.3      -144
   51     162.9     168.7
   52     121.8     -58.3
   53     209.2     121.4
   54     119.1      -8.7
   55     212.7     166.2
   56      75.9     -24.9
   57    -129.4     -77.6
   58    -152.6     -71.1
   59      45.1     -57.1
   60    -217.2     175.4
   61     -84.2    -217.4
   62    -146.1     183.7
   63       7.2     -49.7
   64     129.4     116.3
   65    -152.8    -196.5
   66     -23.7     -79.2
   67    -152.3    -196.6
   68    -135.2      17.6
   69     197.3     188.6
   70        26    -214.9
   71      83.5       4.2
   72    -163.3     130.9
   73    -108.8     195.2
   74    -203.6      83.1
   75    -161.4     -86.5
   76     116.3     -42.7
   77     -62.7      54.5
   78      23.7     140.9
   79     114.6      34.8
   80    -132.9     -14.9
   81       6.5      35.2
   82    -180.2     181.6
   83       -50      97.8
   84     -42.5     123.7
   85      -5.7    -212.9
   86       -15    -100.7
   87    -197.6     110.3
   88    -194.3     209.2
   89    -151.9       205
   90     104.5       0.6
   91      59.4    -101.9
   92     104.5    -105.8
   93    -102.5     196.5
   94     181.7      -5.4
   95      53.6    -179.6
   96    -222.3     161.8
   97    -102.4       1.4
   98      86.3    -153.4
   99      -179     -26.2
  100     161.3     190.9
  101     -80.9    -136.1
  102     -44.5     119.7
  103     123.9     124.1
  104      -168    -121.8
  105     -48.3    -119.7
  106     202.8     156.7
  107    -158.2     -82.3
  108    -204.1       -48
  109      10.3     126.4
  110    -209.8     125.7
  111     137.9    -178.3
  112     221.5     125.9
  113      -150     169.4
  114     -66.5     210.1
  115       170     103.7
  116     -83.9     220.3
  117      80.9     203.9
  118      -201      78.1
  119        25      91.2
  120    -109.2     220.7
  121     202.8    -220.6
  122      -128     -23.4
  123     126.2     -48.6
  124    -186.6     166.8
  125    -168.2     -55.9
  126       5.6    -135.2
  127    -200.6      63.4
  128    -107.3    -125.2
  129     -16.7    -155.4
  130     213.5     172.2
  131     -71.7     221.6
  132     131.4    -165.2
  133     -69.4    -122.2
  134       175     148.1
  135    -159.6      15.1
  136      83.4     148.9
  137     -56.3     194.6
  138     139.2      75.5
  139      74.8     -63.7
  140       9.6     196.4
  141        52     -68.6
  142      94.3     180.7
  143    -172.1      80.1
  144    -148.7       -76
  145       207    -141.6
  146    -111.9    -176.7
  147    -166.8      19.4
  148        51      71.5
  149      53.3     -69.4
  150    -147.3     101.6
  151     -81.1    -142.4
  152     188.7     -10.6
  153      99.1    -191.7
  154     141.2      18.8
  155     207.9     215.7
  156       -85     216.8
  157      -193     104.4
  158     120.9      96.2
  159     131.2    -187.7
  160     -60.3       -37
  161     220.7    -119.9
  162      61.3      -4.5
  163       188      43.4
  164     -59.5    -202.8
  165     -71.9    -202.9
  166     191.7       4.3
  167     175.4     -13.8
  168     112.1     138.8
  169      39.5     172.9
  170    -186.9     113.5
  171     163.7     194.4
  172      82.5      26.1
  173    -185.2     212.7
  174      51.6    -176.1
  175     183.1      54.7
  176     125.9     199.3
  177       -38     209.1
  178       -53      23.1
  179       -34     -98.3
  180     191.7     189.1
  181       168      -9.8
  182     213.3     215.8
  183      90.6    -169.5
  184    -115.3     167.4
  185    -178.5    -113.3
  186    -112.4      65.1
  187      42.7     131.7
  188    -153.3     -59.8
  189     135.5     188.2
  190       203    -129.3
  191     -80.7     215.8
  192      56.2      14.3
  193      54.3     -17.2
  194       5.1     -17.6
  195     -53.5      56.4
  196       -22      -194
  197      -168    -139.3
  198       185      45.9
  199      55.3     122.1
  200     111.7     163.7
  201     187.5     -29.9
  202     103.8    -127.4
  203     -40.9    -203.3
  204      12.2    -102.8
  205     171.1     144.9
  206    -102.6     141.1
  207     185.6     110.3
  208     -49.3     203.6
  209      15.2    -135.5
  210     149.6    -204.5
  211      26.9      31.5
  212     -56.6       -35
  213       9.2    -162.5
  214    -171.8      -5.6
  215      26.3     206.7
  216     180.2    -161.7
  217    -121.8    -166.6
  218     102.5    -170.7
  219      41.2    -187.5
  220     165.7       -95
  221       9.7     -69.5
  222     151.3     -61.9
  223        50     -41.1
  224     155.5    -159.4
  225      48.3    -196.5
  226     196.3     126.7
  227     118.3     205.2
  228     -38.7      -187
  229    -213.3      83.4
  230     110.4       -41
  231     -25.6    -164.2
  232      51.5    -132.4
  233     112.1       -35
  234    -125.3      74.5
  235     -16.7    -135.8
  236        20      41.5
  237     -22.7        23
  238      91.1     202.2
  239       -62       -60
  240    -201.1    -139.1
  241     147.2     -68.7
  242    -136.8     142.2
  243     146.1      17.6
  244      31.5     -88.9
  245    -166.5      47.4
  246     108.9     131.4
  247    -115.6      63.2
  248    -187.4     102.2
  249     105.8     139.3
  250     209.3     145.4
  251     -58.3      42.9
  252    -138.4       6.8
  253       190     186.1
  254      89.2     -71.7
  255    -158.3     190.4
  256     -72.9     -74.2
  257      95.2     113.2
  258     114.2     198.3
  259      49.6     210.8
  260    -168.3      -5.8
  261     160.6    -191.8
  262     147.2     101.4
  263     203.1     108.2
  264     124.8      14.4
  265     209.7    -135.4
  266       5.2    -126.7
  267      86.6     -50.4
  268     103.2      18.9
  269     105.8     -82.2
  270       -28     197.1
  271     214.6     -91.4
  272     -79.9       215
  273     -85.9     -51.5
  274      23.2      49.2
  275    -217.9     140.9
  276      61.5    -132.8
  277       121      74.7
  278       2.7     200.6
  279      47.3      44.7
  280     -16.8      42.9
  281     116.4     175.3
  282    -144.7    -168.8
  283     154.5      39.6
  284     -60.4     -82.3
  285    -131.3    -206.1
  286       -84     143.3
  287     180.8      43.2
  288     180.2      81.8
  289    -136.6     114.7
  290     -89.8     191.1
  291     206.9      18.1
  292     202.5    -146.7
  293     201.9     -54.1
  294    -197.3     158.9
  295    -108.2     -95.9
  296      -147      -200
  297     204.6      47.8
  298    -193.4      -9.4
  299    -104.5      -170
  300      35.3      61.2
  301    -139.2     124.3
  302      -0.5      91.6
  303     221.9     156.9
  304    -108.5    -154.2
  305      -7.5       127
  306        -3      70.3
  307     -38.8      10.4
  308    -137.4    -102.7
  309    -215.7      46.5
  310      24.9      -0.1
  311    -222.6     124.2
  312    -122.6    -135.8
  313     194.6     -15.7
  314      -192     168.7
  315       -30     139.8
  316    -162.9     -18.5
  317    -193.8      56.8
  318     203.1     212.8
  319     -62.4     218.2
  320     156.2    -103.6
  321     141.1     130.8
  322     -40.3    -125.1
  323     -63.5    -204.1
  324     119.3      14.3
  325    -168.8    -160.7
  326     152.5      41.5
  327     206.9     204.4
  328    -122.5     -11.9
  329      45.1     221.3
  330     158.3      28.6
  331     156.3     -45.9
  332    -186.4     176.4
  333     114.9    -182.7
  334     -38.9      75.6
  335      -162     153.8
  336     -37.4    -202.8
  337     -61.3       5.6
  338      -176      87.3
  339     141.9     -93.2
  340     -63.7    -158.8
  341     199.7    -134.6
  342      18.9      -0.7
  343       -95      50.5
  344    -199.4      -5.9
  345     -47.3    -166.9
  346     162.7     -24.5
  347    -201.4       8.1
  348     111.5      -130
  349      90.9    -186.4
  350     -46.1      -9.2
  351      -1.3    -151.8
  352     216.6      77.5
  353     148.8    -187.5
  354       -34     139.7
  355     152.8     -62.8
  356     195.3       -19
  357      88.8     -48.6
  358    -192.3      -117
  359    -149.3       -26
  360     167.7     222.7
  361     -96.2      -132
  362     -76.2    -187.1
  363      47.4      98.8
  364     107.5     148.3
  365     172.3     187.7
  366      -132       115
  367      61.5      40.2
  368     158.6        -7
  369     -18.9    -204.9
  370     215.6     206.3
  371       6.4    -112.9
  372       112     210.7
  373    -168.5     106.4
  374      52.2      -3.6
  375     140.6    -203.5
  376    -165.9     188.4
  377       123     212.6
  378    -105.3      85.8
  379    -173.3     -18.6
  380     200.3     -72.8
  381     139.2     -80.8
  382     187.7       3.1
  383     130.2      82.2
  384      50.7       213
  385    -221.1     -69.4
  386    -143.4    -140.7
  387     202.1     162.7
  388     -76.1     -70.7
  389        -1      73.1
  390    -156.2      41.3
  391     -10.4     193.7
  392        21     -76.4
  393     176.9        39
  394     -17.7    -158.6
  395    -132.9    -182.9
  396      18.4     -15.2
  397       9.5     -37.7
  398     -44.4     -48.3
  399    -125.3       181
  400    -166.9     133.1
  401       124     -69.5
  402      -133      -139
  403     -90.8    -215.9
  404      -5.1     -50.2
  405      56.2    -223.6
  406     -31.9      13.3
  407     -29.5       7.2
  408    -164.6     -21.1
  409      -130      45.6
  410      -4.5     213.2
  411      16.7     172.8
  412     212.7    -175.1
  413      39.4     108.6
  414       -92     103.6
  415    -125.3        53
  416      19.9     114.8
  417      43.7       136
  418    -217.3     -76.4
  419     102.9     -30.6
  420     -81.4    -188.8
  421     154.3     219.2
  422     216.3     202.3
  423       222    -171.5
  424    -145.4      78.8
  425     140.8     216.9
  426      93.3     -59.8
  427     137.9    -218.3
  428     215.7     -82.3
  429    -173.2      -116
  430    -212.6      -0.5
  431      -172      -179
  432     -92.6     141.4
  433     147.8     174.6
  434     -62.3      53.3
  435     -19.4     102.7
  436    -137.4      18.3
  437    -213.9    -101.8
  438    -166.1    -152.2
  439         1     207.3
  440    -114.2      17.6
  441       -74    -176.9
  442    -111.5    -152.3
  443     106.9      22.9
  444      34.1     -92.9
  445     103.9    -107.6
  446     134.1     -77.8
  447    -105.6      13.5
  448    -186.4    -181.4
  449     -60.3    -144.4
  450     119.9     102.4
  451      97.5     -25.9
  452     120.6    -197.7
  453      26.9     180.5
  454     208.3    -172.2
  455     -77.7    -140.9
  456    -137.9       108
  457       192     108.7
  458    -207.9       159
  459      -186      -6.4
  460    -199.4       -45
  461      48.7      23.7
  462      46.6       0.3
  463    -200.3     221.1
  464     182.8     165.8
  465      56.9      66.4
  466      19.1     217.2
  467       127    -220.2
  468     216.3    -191.8
  469     -50.4     -73.2
  470       -59     -30.2
  471     166.7     145.7
  472    -157.3    -163.6
  473     -96.6      -188
  474       117      47.2
  475      59.7      92.8
  476     221.9    -154.6
  477     -26.9     -98.3
  478    -130.6     208.7
  479     179.8      -7.5
  480    -206.9      32.5
  481      31.1      84.3
  482     123.4     -58.3
  483     204.3     121.8
  484    -200.6    -145.2
  485     209.3       -28
  486     223.4     -52.3
  487      32.8     146.6
  488      12.8     103.3
  489      54.7      93.3
  490     182.1    -124.4
  491      -134    -218.4
  492    -109.3    -119.5
  493     -20.7    -219.7
  494    -151.2       -80
  495    -107.7     178.3
  496    -211.3     130.2
  497      79.7    -183.4
  498     -73.4      10.4
  499      30.8     216.3
