    0    -161.7       164
    1       -52      92.4
    2      87.8      47.5
    3      -4.8     109.4
    4      13.4    -120.3
    5       -81     166.6
    6    -186.4     -51.8
    7        15     157.6
    8     -67.7     116.1
    9      22.8     -33.4
   10      46.5       2.7
   11     -18.7    -128.4
   12     154.1      31.4
   13    -167.9     222.5
   14    -198.3      -4.5
   15     191.8    -148.7
   16    -223.4      86.2
   17     221.1        57
   18      61.3     139.6
   19     -60.6       182
   20       170    -194.8
   21     223.6     136.8
   22     142.6    -126.2
   23     223.8     -81.9
   24      -195    -149.3
   25     220.4    -167.4
   26       -53      76.4
   27    -202.5     -17.5
   28      -110    -103.5
   29    -194.5      35.1
   30      24.8     183.2
   31    -219.2      75.2
   32     207.4     -82.2
   33     189.3       -22
   34       -96      65.2
   35    -179.5    -107.9
   36     -65.2     -31.1
   37     -63.1     166.6
   38      58.9     -53.7
   39       129     177.4
   40    -134.5    -207.4
   41     171.2       209
   42     -97.1     152.9
   43      -5.6      23.2
   44     205.1      54.5
   45     -24.5        64
   46    -130.8      -200
   47     -68.2    -175.1
   48     216.8    -175.7
   49     -83.8    -223.2
   50     -36.2    -211.5
   51    -142.2      37.6
   52     161.5     161.8
   53    -202.1       -57
   54     165.9    -188.5
   55       9.3     211.2
   56     158.9     -81.5
   57      57.6     212.1
   58       -11     119.6
   59     126.3      98.6
   60       0.3    -116.5
   61      79.9    -136.9
   62    -110.8     -17.4
   63      34.6     147.2
   64     -86.9      41.2
   65     151.4       4.7
   66      42.5      15.9
   67    -163.6      30.7
   68      37.8    -203.1
   69    -112.2    -217.2
   70      73.1    -142.7
   71     157.5     149.1
   72     -39.4    -173.2
   73    -147.6      36.2
   74     182.3     157.6
   75     209.5    -176.1
   76      94.1     175.5
   77        95      64.3
   78      93.3     -78.1
   79     -59.1    -193.4
   80     -21.6       -22
   81      90.4      51.2
   82    -155.9     -44.6
   83       3.8     137.6
   84     221.3     149.2
   85      77.6     184.9
   86     187.8    -130.7
   87     -15.5      78.7
   88      15.5      81.9
   89       214      57.8
   90     -86.3    -153.8
   91    -173.6     116.3
   92      87.3       0.3
   93    -213.3     137.5
   94       -56      -1.5
   95     -35.3     213.7
   96    -123.2      10.1
   97      62.7     -64.6
   98    -129.5       5.4
   99     173.2     134.3
  100     151.7    -124.4
  101      28.2      38.2
  102     -76.6     -72.8
  103      -189      45.5
  104      -149     -25.7
  105    -201.1     -60.9
  106      -140     -45.3
  107     -82.9      58.8
  108     154.4    -157.9
  109      55.1     182.5
  110     149.5      -8.8
  111     -14.4      49.2
  112      94.7       135
  113     187.9    -141.1
  114      77.6     -37.9
  115     171.9     202.9
  116    -157.3     -56.8
  117      86.9     205.4
  118     -60.5     -43.2
  119     -28.2      53.2
  120      16.2     208.6
  121     189.8     -27.4
  122     152.4     202.2
  123      92.1      36.6
  124     148.2    -193.3
  125    -201.8      33.1
  126     -23.6     -27.4
  127    -102.5     191.6
  128      -100     -27.8
  129     -72.4       205
  130    -124.6     -84.3
  131    -158.8      35.5
  132      -118      44.9
  133     -57.5     -60.5
  134     -98.6     177.8
  135     -80.3      63.5
  136    -157.8     215.2
  137      71.1     184.6
  138     -72.4     153.9
  139     -24.4     -55.4
  140      47.3      70.2
  141     -55.9     153.4
  142     -62.8    -138.4
  143      56.2     133.6
  144        31     107.2
  145    -122.8     195.1
  146     -80.2    -197.5
  147     -67.5     178.3
  148      87.2     -56.4
  149     -29.8      19.2
  150    -175.5     207.9
  151      17.6      -4.1
  152     130.3     -57.5
  153     157.4    -112.5
  154      16.6     117.2
  155     101.9      84.2
  156     -43.6     -17.5
  157    -133.2    -155.1
  158      -1.9    -129.1
  159     -64.6     221.7
  160       7.9    -148.5
  161     -25.7     128.3
  162    -127.4    -147.4
  163    -133.1    -208.6
  164     -46.1     -79.5
  165      -113      61.6
  166      74.3       -41
  167     194.2       176
  168      15.6    -142.8
  169      57.3     -80.5
  170    -191.7    -202.7
  171     123.3    -181.7
  172     106.3    -140.3
  173      74.4     -64.2
  174      27.6      59.2
  175     -80.9    -135.3
  176     -75.2     -69.4
  177     -53.5      38.3
  178     193.9     142.4
  179     -24.2    -215.2
  180        -0    -121.5
  181      95.9    -134.6
  182      22.2      84.7
  183     -55.7      -8.6
  184     103.2      47.6
  185      65.3     -42.8
  186     -62.4      89.3
  187     154.1    -187.9
  188     -42.6      87.7
  189     -31.1      91.7
  190    -203.8    -116.8
  191     -43.2       221
  192       1.9    -204.1
  193     207.4     140.3
  194     -98.5       146
  195     156.6     130.7
  196     -27.1    -209.5
  197      -106    -140.5
  198    -162.4     188.7
  199     120.7     131.8
  200    -219.7    -223.8
  201    -182.1    -141.2
  202      45.5     -57.4
  203    -125.4    -207.4
  204      -7.4    -221.5
  205      86.4     160.6
  206    -127.8     -10.4
  207      12.6     167.3
  208     137.5      -135
  209      64.4     -64.4
  210     155.4      79.7
  211    -127.6    -136.8
  212     194.5     147.6
  213     160.4     206.7
  214      39.9     168.8
  215    -201.8     -99.3
  216     -95.8     167.6
  217      85.7     112.7
  218     122.8     -55.7
  219    -124.9    -106.9
  220     -75.5     -93.9
  221    -143.1     172.4
  222    -169.9     -24.7
  223        64    -117.8
  224     -92.5     177.3
  225     -40.9       3.7
  226    -222.6       5.8
  227     -55.4     214.4
  228     216.4     166.7
  229       220     -92.1
  230     154.5     216.7
  231    -142.4     -96.2
  232       114     176.1
  233      85.2      45.3
  234      62.6      79.8
  235    -136.2     204.5
  236      39.8     170.4
  237    -155.5    -109.2
  238      42.4     178.9
  239     103.1     -49.6
  240     -89.7     -53.7
  241     123.1     209.8
  242     179.6    -167.6
  243    -135.5     134.4
  244     164.2      30.8
  245        84       -62
  246        57     -77.8
  247    -150.3    -191.4
  248     174.9     170.4
  249       167      60.9
  250     107.6     180.2
  251      11.2    -119.9
  252    -144.9    -106.5
  253     -44.8     157.8
  254    -112.6    -110.8
  255     135.5      18.4
  256       -26    -200.5
  257     129.9     153.5
  258     -12.2     209.8
  259      33.4    -124.7
  260    -158.3      -7.1
  261       1.4     109.9
  262     -27.4        65
  263    -212.7     136.9
  264     -22.1     140.9
  265      23.7    -150.1
  266     -45.1     -77.3
  267      53.5    -177.1
  268     -90.9    -188.7
  269      -115     205.2
  270     -10.5        33
  271       181     138.8
  272      52.7     -13.7
  273    -208.9      63.9
  274     -30.1    -157.7
  275     -29.4      95.2
  276      74.4     -72.1
  277      11.2     -29.7
  278      28.9     -73.2
  279     145.2      24.1
  280     -11.6       148
  281      33.7     180.6
  282      99.4     174.6
  283     188.9        -2
  284     -29.5    -166.1
  285      16.1    -105.2
  286     -20.8      38.8
  287    -174.5    -125.8
  288    -221.3     -69.7
  289      52.1     -95.5
  290    -100.1       -32
  291     105.4      66.3
  292      22.1      -219
  293     -57.5     144.1
  294    -192.9     -20.6
  295      68.2     -92.1
  296     -98.6    -125.7
  297     -82.3     211.4
  298      41.9    -142.9
  299     181.8    -119.4
  300     -66.1     -58.8
  301      72.4     166.6
  302    -163.1      77.5
  303      12.7      89.3
  304    -193.9        21
  305    -143.4    -179.4
  306     -98.3    -120.8
  307       -15     -85.4
  308    -133.5        15
  309    -137.7      94.3
  310     134.9      92.5
  311      59.1       184
  312     -13.8     -31.8
  313      82.1     178.7
  314      81.4     -22.4
  315    -189.5    -200.3
  316    -179.9     183.2
  317      15.9     -97.6
  318    -106.9     165.9
  319     -91.5    -185.3
  320      19.1    -178.2
  321     178.1     139.6
  322       1.2      58.1
  323      66.8     172.3
  324     -84.9    -181.1
  325      75.7     -86.4
  326     -50.5     -18.2
  327     186.7    -138.2
  328       190    -195.8
  329    -172.5      52.7
  330     -29.1      45.1
  331     211.3      42.4
  332     223.7    -216.2
  333      46.9       -42
  334       -68     166.6
  335      36.5    -169.1
  336     -20.2    -137.8
  337     -11.8      26.8
  338     126.3       -63
  339     -73.9     -14.6
  340     153.8    -204.2
  341    -218.3      -123
  342    -117.6     105.1
  343      85.7     149.1
  344     137.8     170.8
  345      36.6       -14
  346    -186.8    -137.1
  347    -153.6       -42
  348      73.3    -170.9
  349     155.2      27.3
  350      88.3    -211.7
  351      38.8     -19.3
  352    -175.5    -154.4
  353    -159.7     173.7
  354       107     138.1
  355      48.1    -197.9
  356    -201.9     170.5
  357     209.4      -6.8
  358      19.1      -130
  359    -146.9     -28.6
  360      28.8     134.5
  361      37.7    -135.2
  362      61.3     -23.6
  363    -119.8     197.4
  364     215.7     131.1
  365       121     -13.8
  366     -49.8     -70.1
  367      18.9      64.5
  368    -184.7      -6.3
  369        78     109.5
  370     123.2    -214.3
  371      36.2      28.5
  372     -18.2    -105.8
  373     137.7       5.2
  374    -101.1    -125.6
  375      47.5       4.4
  376     188.3     175.8
  377    -154.5     205.5
  378       174    -119.4
  379     146.9      25.8
  380    -168.5     123.6
  381     -37.8    -107.5
  382     -95.8      -7.9
  383      94.8      -159
  384    -107.7     149.9
  385       -61      -6.3
  386    -191.2      89.9
  387     -44.3     132.7
  388     172.4    -220.3
  389     -72.1    -162.3
  390    -140.7       114
  391    -102.2     -14.4
  392     171.4     -50.8
  393     160.5     -85.6
  394     -39.6    -187.2
  395        47      10.3
  396      19.4     206.8
  397       -65       -14
  398    -209.2     117.5
  399     -49.8     -77.2
  400     121.8    -220.5
  401    -205.3     167.5
  402      43.7      -133
  403    -114.2     -11.2
  404     -36.3      -186
  405     178.8      45.8
  406     139.6     -17.6
  407      -9.3      58.7
  408     107.3      75.1
  409     129.2      -128
  410      27.3    -143.6
  411    -109.5      -220
  412     212.1     -45.4
  413      85.3    -207.2
  414    -199.7    -153.1
  415     178.9     -15.4
  416    -200.2     210.2
  417    -193.4    -189.6
  418    -182.2      19.3
  419     -80.1    -123.1
  420     -28.6      54.3
  421     -64.4      22.2
  422     -14.6      63.5
  423      31.1    -122.7
  424    -196.9      -100
  425      32.3    -203.5
  426     -12.3     -59.6
  427       1.9      -182
  428     -31.8       -93
  429    -198.7     -83.5
  430      25.2     -88.9
  431      44.7     106.9
  432     140.7     151.5
  433     -73.6      75.6
  434    -184.9     -49.1
  435     165.3      35.1
  436        41     179.3
  437    -174.8    -210.3
  438      -112      -109
  439     185.8     -51.1
  440      88.1     184.4
  441     -59.8      36.4
  442    -195.6    -159.8
  443    -176.5     117.4
  444    -131.6      -222
  445        53    -200.9
  446      11.9      -9.2
  447     169.5    -119.7
  448    -203.5     174.7
  449    -104.4      58.7
  450     173.5    -191.8
  451    -152.8     211.5
  452     144.4     -61.8
  453    -183.1       1.3
  454    -207.1     188.6
  455     187.6    -156.8
  456     125.3     -33.2
  457     161.5    -222.1
  458    -209.5        73
  459     155.6     181.4
  460     171.3    -200.5
  461    -191.7     -39.6
  462     104.8      60.7
  463    -155.1     197.5
  464    -214.5      25.4
  465     141.6     -67.2
  466      36.9      31.3
  467      -3.1     112.3
  468     -68.9      45.8
  469     117.5     147.7
  470      -4.6       182
  471    -216.8     -16.1
  472     100.1     147.7
  473    -101.3     181.5
  474     160.7       106
  475      20.3       -81
  476     -82.3    -174.5
  477      65.5     206.2
  478     102.3     -58.4
  479     168.9       117
  480     -92.2     -32.9
  481     -13.8      53.5
  482    -204.7      10.4
  483    -132.2    -150.5
  484      72.9     -56.8
  485    -171.8       -98
  486      -203      -161
  487      77.4    -143.6
  488    -124.6     -94.5
  489     -63.6     -98.5
  490     136.1     148.4
  491    -201.9      93.4
  492      66.2      -220
  493    -179.6      76.6
  494     152.9     196.1
  495      13.1      -0.5
  496      89.5    -114.8
  497    -115.3        62
  498     188.5    -122.1
  499      71.1     -58.7
