    0       -38     166.9
    1    -121.6     -12.4
    2     142.6    -219.4
    3     162.4    -149.3
    4     107.4       161
    5      42.6     121.8
    6      38.8    -172.6
    7    -182.8      18.3
    8     -65.2    -212.3
    9     -47.7      -7.4
   10    -170.4      21.3
   11      41.1     207.2
   12     -55.6     201.2
   13      -171     -19.9
   14       168     190.2
   15      22.1     118.4
   16    -168.8      99.7
   17     -74.1     -21.9
   18      -137     -73.8
   19       -64       129
   20    -218.7    -100.7
   21     102.3     221.2
   22     116.2       211
   23     101.3    -203.8
   24        33     -84.1
   25     -97.5     152.9
   26    -145.2     -54.3
   27       190    -223.1
   28      45.5     170.5
   29      34.8    -186.7
   30      80.2     -70.9
   31    -161.8      -4.7
   32     -36.3      27.5
   33    -126.1       163
   34     208.8     -53.5
   35     209.1      -117
   36    -101.4     -95.8
   37       -52     102.4
   38    -155.3     172.4
   39    -212.7    -205.5
   40     160.7     124.4
   41       1.1      43.9
   42     160.6     163.6
   43        86      14.9
   44       204      52.3
   45    -199.8     -60.6
   46     -41.7     -74.8
   47     209.7        48
   48    -132.6     194.5
   49      -2.3    -171.7
   50    -150.3     -87.6
   51     -15.4     -24.5
   52     222.9     101.2
   53     -85.5     216.9
   54     221.4     -31.8
   55       9.7    -142.6
   56       0.9     132.4
   57    -141.6      50.5
   58     151.5    -115.2
   59     -28.7    -140.9
   60     134.4     -80.5
   61     -84.9    -107.1
   62     -33.6    -201.8
   63     150.2     211.7
   64    -151.8    -205.1
   65     138.6      10.2
   66    -178.7       -35
   67    -152.4     107.4
   68     -28.5    -185.9
   69     -97.3      78.5
   70     129.4     -75.3
   71       -99      11.3
   72      34.4     -46.8
   73      -5.2      68.1
   74    -193.7     181.4
   75    -122.1     221.3
   76       -99     138.6
   77    -160.8      62.5
   78     -53.3     133.5
   79      -193     155.8
   80     114.2       109
   81       152     -89.4
   82     -58.6    -132.9
   83     173.2     161.4
   84      55.8       4.7
   85    -172.7      54.7
   86       -78      -9.4
   87     175.9      16.5
   88     196.2    -105.9
   89      48.4     -50.4
   90     125.5     -44.6
   91      75.8     -44.6
   92     -81.6      26.6
   93     -57.6    -101.3
   94    -132.7    -205.5
   95        14     179.8
   96    -120.9      22.9
   97       -93      33.9
   98     153.5    -100.1
   99    -217.6     202.5
  100     -54.7     136.7
  101      65.1      23.1
  102      78.3     184.2
  103      -5.2    -184.5
  104    -124.8     108.2
  105     119.6     -45.9
  106        -4     -29.3
  107       177    -110.7
  108      54.9        90
  109     160.5     154.2
  110    -177.5     -45.2
  111      50.5    -131.1
  112      50.9        61
  113       183       -54
  114      79.5     -33.8
  115     -25.7      29.6
  116     -92.7     -32.2
  117     110.9    -180.6
  118    -140.6     146.1
  119     100.3     -19.4
  120     154.4     146.8
  121    -125.2    -149.1
  122     222.3     165.3
  123      31.7     136.8
  124      80.9    -214.3
  125      -4.8     195.6
  126      32.4      65.9
  127    -117.9    -113.5
  128      95.6     145.4
  129     -18.6      67.2
  130     -85.2      39.1
  131      45.8      71.4
  132     111.4      -2.2
  133     -78.5     133.1
  134      -3.4      34.7
  135     128.9     -77.9
  136    -221.5    -144.9
  137    -109.9    -185.1
  138     -56.9      99.2
  139     175.9      97.7
  140     116.9     208.4
  141    -141.6    -204.5
  142     -52.9      97.2
  143     160.4       182
  144      -171      44.5
  145     109.3    -120.7
  146     -18.7     161.5
  147     -19.9      42.9
  148     180.9     124.3
  149     -84.3    -180.2
  150         3      78.6
  151     -44.8     128.4
  152      82.7    -179.6
  153      -140     -20.7
  154     215.2    -149.7
  155      39.6    -198.1
  156     185.3      58.7
  157     175.9      28.5
  158      38.9      88.2
  159     -17.1      -9.3
  160    -134.9    -179.7
  161      44.1     166.8
  162    -169.5      -1.6
  163      -1.8    -159.1
  164      89.3      91.1
  165      78.4     -66.7
  166     -34.3     128.1
  167     139.8     -74.2
  168      63.7      27.9
  169     -59.4     -12.8
  170       -19      14.8
  171     186.8     -90.6
  172     210.4     123.5
  173      43.4     135.3
  174        10     148.5
  175      29.2        74
  176    -176.1    -170.8
  177     173.1    -120.5
  178      36.2     180.9
  179     111.1      -7.7
  180     159.9     -63.9
  181     -39.8       141
  182      98.1     103.9
  183     137.2     166.8
  184     -35.4    -139.2
  185    -145.7    -112.3
  186     101.5     -85.5
  187      75.6     -82.1
  188      18.8     139.5
  189     -85.2     210.3
  190     136.4       9.4
  191    -127.2      31.3
  192     123.1    -174.6
  193       1.6     165.6
  194       -46      65.9
  195     119.9    -138.1
  196     170.2      -9.2
  197        22      68.5
  198    -156.8      -3.7
  199      87.9      93.7
  200     -69.8    -107.6
  201    -214.6       136
  202     219.1    -162.5
  203    -149.9     -44.7
  204    -213.1     137.4
  205    -190.2    -141.7
  206     -75.6     -79.5
  207     221.2      91.8
  208     186.8    -142.8
  209     -55.1    -108.8
  210     -38.3     -23.7
  211      63.6    -107.4
  212    -200.3       -15
  213    -157.3     195.6
  214     114.1    -134.1
  215     -77.6      26.8
  216       7.5      93.8
  217     -67.8      -199
  218     102.6     141.7
  219    -107.7    -116.5
  220      41.1      -6.1
  221     210.2     -14.2
  222     -97.8     201.2
  223      -220     219.1
  224    -211.1    -181.3
  225     -15.7     120.5
  226     114.8    -142.8
  227     219.3    -186.8
  228     -26.4     -57.5
  229     -89.1      63.8
  230     158.2    -156.8
  231    -190.6      20.5
  232     145.3    -165.6
  233      58.9     150.1
  234      94.7     -88.9
  235     -73.7     194.3
  236    -134.3    -120.2
  237    -180.1     113.5
  238    -172.2    -102.9
  239     180.8     110.3
  240     -50.8    -101.8
  241       115      83.5
  242       147     171.6
  243       206     -17.4
  244     175.6       181
  245    -166.5      68.6
  246    -203.5     128.6
  247     155.4    -136.9
  248     194.7     121.4
  249       -56     168.1
  250       216      91.7
  251       -86     217.6
  252      39.3    -188.2
  253      44.7       168
  254      33.5     -84.4
  255     157.1        93
  256    -202.2     129.9
  257    -101.6    -135.6
  258       -82     108.4
  259    -119.2      45.7
  260    -209.1     -31.8
  261     127.3     115.8
  262    -127.8      96.6
  263    -187.1     -26.9
  264     -91.5        16
  265    -172.4     142.3
  266     165.2     -92.6
  267      55.6     -86.8
  268    -101.8     100.7
  269      64.2      33.8
  270      81.5    -109.8
  271      24.4    -219.6
  272     158.5     -53.9
  273    -194.2     -46.8
  274    -138.4    -177.4
  275    -213.3    -170.7
  276      -101     209.9
  277     -20.9      68.9
  278      10.5      87.7
  279     112.4      54.8
  280    -162.4     217.4
  281     -35.9    -130.2
  282       215      -3.7
  283    -106.9      -129
  284      24.9       7.1
  285     -31.6       1.6
  286     107.9     -27.5
  287    -111.6    -136.1
  288     -34.7     -30.9
  289    -125.6     -97.8
  290      89.3     -12.8
  291    -191.2    -209.6
  292     137.4    -134.2
  293     -66.4     197.6
  294     -37.4      64.4
  295     -65.4      -5.5
  296       -13     -73.1
  297     173.7       1.7
  298      -132     170.4
  299     102.5     -33.1
  300       7.8     -18.1
  301      -139      -128
  302       -73     -64.2
  303      92.4    -127.2
  304      -154     218.9
  305     155.6     117.3
  306     -57.2       1.2
  307        70     119.6
  308      45.4     -18.3
  309     101.8    -166.6
  310      53.6      59.2
  311     189.9    -139.5
  312    -184.5     -16.4
  313    -157.2    -196.9
  314        97    -136.4
  315    -194.1    -189.3
  316    -214.8    -126.3
  317    -140.1    -148.4
  318     -73.2      71.6
  319    -125.9     -33.4
  320    -117.3     113.9
  321    -181.3      66.7
  322    -214.2    -218.4
  323      35.6    -154.1
  324     -39.6     105.1
  325     160.3      57.9
  326    -161.3     174.5
  327      -213     -96.6
  328      28.2       177
  329     163.7      -159
  330     208.5     -76.1
  331     155.4      90.3
  332      93.7    -174.7
  333      96.8       105
  334     173.5    -154.4
  335      53.1      38.6
  336      59.1    -185.7
  337    -161.1      72.4
  338       108     211.4
  339    -143.6     -27.7
  340       122        78
  341    -200.1     118.9
  342    -104.9     134.9
  343     112.2     107.3
  344      -112       142
  345     102.6     192.7
  346      83.3     -74.7
  347    -147.1    -116.4
  348    -220.3    -174.6
  349    -178.6    -141.1
  350     -36.7       137
  351    -105.1     164.1
  352    -186.7     222.4
  353    -138.4     -33.3
  354       181       3.4
  355     -78.4    -108.6
  356     223.4      36.1
  357      69.6     117.8
  358      29.9     182.8
  359     102.3     190.8
  360     -96.4    -191.9
  361     -16.1      -2.9
  362       176     -40.2
  363      78.5    -205.7
  364    -168.5     156.8
  365      89.7      89.7
  366      62.4     103.5
  367    -201.1     152.5
  368    -170.8    -153.7
  369      -5.9     -12.3
  370    -149.4     180.8
  371     -37.8      74.2
  372    -139.8       -39
  373      -208     114.2
  374     176.4     182.7
  375    -172.3        54
  376      38.2    -153.5
  377     145.8     143.5
  378     171.3     189.4
  379      10.3     160.4
  380    -204.4      52.2
  381     179.4     -59.8
  382        19    -131.6
  383     -45.2      -4.8
  384    -203.3     176.4
  385     -90.5    -116.7
  386     -15.7      44.6
  387     -52.7    -170.4
  388    -126.2     128.5
  389        44     125.9
  390     -54.4      69.1
  391      45.1    -220.5
  392     156.6    -121.7
  393      44.7       135
  394    -120.1       -50
  395     -39.7     157.7
  396      16.5     -65.8
  397    -169.6      -145
  398     -44.8      73.4
  399    -105.8    -134.5
  400     203.7    -139.2
  401     191.4    -192.2
  402    -216.1    -138.5
  403      83.8      -7.7
  404     111.5     212.3
  405     124.3     128.4
  406     -29.2    -153.5
  407     -43.1      79.5
  408      25.7    -181.2
  409      46.8    -119.5
  410     134.4      -8.4
  411      30.6      40.1
  412    -155.5      71.8
  413     140.3    -211.4
  414     119.3      85.8
  415    -165.5     118.8
  416      96.1      81.8
  417      92.8    -126.8
  418     -78.9     -31.2
  419     -79.1    -212.7
  420    -125.1     180.2
  421    -206.2      55.3
  422     115.2      37.3
  423    -100.4      56.4
  424     210.4    -122.7
  425      84.4     143.4
  426     101.6    -209.7
  427     113.3    -204.6
  428      -124     131.5
  429       -19     101.7
  430     -10.8    -208.8
  431    -216.6     -51.6
  432     213.9      75.5
  433    -222.8     149.7
  434    -150.6    -122.6
  435     141.5     -34.6
  436     159.2    -154.1
  437     171.2    -201.8
  438     -80.1    -109.9
  439      -0.1    -109.4
  440    -166.3       109
  441     103.9    -147.5
  442       -30      -212
  443    -109.8      41.6
  444     161.6      74.2
  445      30.3     216.8
  446      65.4        41
  447     -13.7      73.8
  448    -145.1    -179.6
  449    -130.1     217.4
  450      44.6      64.2
  451    -125.2     115.5
  452        70     213.2
  453     149.4     102.7
  454       -52      67.3
  455     174.3     -55.6
  456     160.5       -33
  457      65.6     135.2
  458      54.4      48.6
  459     177.6    -213.6
  460     205.5     154.5
  461      84.1     -37.4
  462      77.8     -35.3
  463      30.8      52.1
  464      11.1      36.5
  465     114.1      62.3
  466     212.4     180.2
  467    -168.2       8.5
  468     -41.3    -108.3
  469     -20.9    -119.5
  470      -7.2     -42.6
  471     129.3    -133.8
  472     117.6      94.7
  473     -56.4    -163.6
  474    -100.6    -189.7
  475    -210.6      11.7
  476    -137.8      25.2
  477       -48      21.8
  478    -117.2     105.9
  479     190.4      70.9
  480    -215.5     -53.9
  481    -180.9      76.6
  482     184.4     -53.5
  483      65.5      45.1
  484      78.6      25.3
  485     -74.8    -206.8
  486     -26.6       -85
  487    -190.5     -65.7
  488    -121.9      85.3
  489     174.4      -0.6
  490      71.8     172.9
  491      17.7      89.4
  492    -215.8        81
  493     -94.1     138.8
  494     -89.6     181.9
  495      80.7      51.5
  496     -29.1     -38.5
  497     100.2     162.4
  498     -81.8      49.9
  499     -29.1     -87.7
